106 335 228 -227 -59 291 -392 -45 443 372 908 395
106 335 228 -227 -59 291 -392 -45 443 372 908 395
106 325 219 -219 -60 284 492 837 239 372 908 405
86 306 219 -214 -55 274 487 832 240 404 179 -63
96 320 224 -195 -65 264 492 842 244 404 174 -62
106 325 219 -207 -62 274 492 832 235 414 189 -52
96 335 238 -214 -55 274 492 836 235 399 174 -67
96 325 228 -214 -70 288 492 831 230 399 174 -62
116 335 219 -209 -65 279 487 825 230 394 174 -67
101 335 233 -224 -50 279 492 835 240 394 164 -86
86 335 248 -217 -65 286 482 830 240 403 184 -56
106 340 233 -209 -79 293 482 825 235 403 174 -66
86 315 228 -222 -62 288 482 815 225 403 174 -71
77 296 219 -200 -70 274 477 825 235 397 174 -66
91 297 204 -185 -70 259 497 839 235 397 164 -75
96 302 204 -192 -55 252 492 829 225 397 169 -75
111 326 214 -197 -53 254 497 829 230 388 154 -85
106 326 219 -217 -50 271 497 833 235 388 155 -88
91 321 228 -214 -55 274 486 833 244 402 165 -83
96 321 224 -205 -67 276 486 837 244 407 175 -69
77 302 224 -207 -62 274 496 832 235 407 175 -69
81 298 214 -187 -72 264 486 822 215 392 165 -73
91 298 204 -187 -65 257 496 827 220 378 146 -83
101 317 214 -192 -55 253 496 832 230 377 151 -88
111 332 219 -207 -55 267 490 827 225 387 161 -77
106 342 234 -219 -53 277 500 836 235 382 156 -82
106 352 244 -222 -62 289 500 836 235 391 166 -72
96 352 254 -227 -67 299 500 831 230 391 166 -72
77 342 264 -222 -77 304 504 835 235 382 161 -72
72 342 268 -207 -92 304 514 840 244 390 166 -68
86 347 259 -205 -97 306 514 834 235 395 171 -68
81 347 264 -214 -84 305 519 834 230 386 156 -80
101 357 254 -212 -89 307 519 834 225 375 147 -90
116 361 245 -227 -75 307 524 834 230 375 147 -90
111 376 265 -236 -62 305 518 844 240 380 156 -80
111 376 265 -241 -75 322 513 839 240 389 166 -75
106 376 269 -241 -75 322 503 833 240 389 166 -75
91 381 289 -240 -79 325 503 838 240 394 166 -75
96 386 289 -235 -97 337 503 838 235 394 171 -69
96 386 289 -240 -94 339 513 842 235 394 171 -69
111 400 289 -240 -94 339 503 837 230 399 181 -65
135 410 274 -254 -87 347 489 831 230 389 171 -65
125 416 289 -271 -67 344 479 831 240 388 171 -69
111 406 294 -269 -79 354 469 826 235 398 181 -60
116 382 265 -257 -89 351 469 826 235 393 171 -65
106 372 265 -247 -72 326 469 831 240 398 177 -53
116 387 269 -237 -77 321 469 831 235 408 187 -48
125 397 269 -249 -75 330 469 830 235 403 182 -53
135 421 284 -260 -70 335 464 830 235 402 182 -58
145 436 290 -277 -72 355 459 835 241 402 182 -58
140 421 280 -290 -70 365 454 840 250 407 187 -53
140 406 266 -280 -67 352 449 834 250 417 196 -48
135 387 251 -272 -60 338 434 813 231 416 196 -47
116 362 246 -260 -55 321 434 808 231 396 187 -52
106 367 261 -238 -62 306 429 803 221 396 182 -57
101 387 285 -236 -75 316 434 803 216 386 172 -62
130 393 261 -243 -89 338 438 818 231 386 172 -62
160 422 261 -260 -62 328 428 808 226 401 187 -52
164 422 256 -290 -48 343 414 807 231 401 187 -52
160 402 241 -292 -43 340 409 807 231 406 197 -45
150 398 246 -280 -39 323 414 802 231 411 202 -30
150 398 246 -272 -46 323 423 817 241 405 193 -40
150 383 231 -272 -46 323 443 840 260 410 197 -35
135 379 241 -265 -39 308 448 844 260 434 212 -25
135 384 246 -255 -51 311 457 854 270 429 207 -35
140 394 251 -258 -54 316 453 849 260 439 212 -30
164 389 222 -265 -54 323 442 839 255 434 213 -34
160 394 231 -275 -27 307 437 835 255 424 203 -44
150 360 207 -275 -34 314 442 839 260 419 198 -44
135 335 197 -253 -27 285 437 824 245 428 203 -39
121 330 207 -233 -29 268 447 834 245 414 194 -49
116 325 207 -224 -41 270 447 824 241 413 194 -49
116 340 222 -220 -44 268 447 814 231 408 189 -61
101 345 242 -227 -51 283 452 823 245 403 179 -66
86 330 242 -222 -68 295 442 818 236 418 194 -57
96 335 237 -208 -76 289 456 822 241 408 179 -76
96 335 237 -215 -68 289 466 822 226 403 174 -76
86 291 203 -215 -68 289 461 812 211 383 159 -86
86 272 184 -188 -56 249 471 832 231 369 150 -96
77 281 203 -178 -46 230 481 832 231 388 164 -85
86 291 203 -178 -61 245 481 826 226 388 159 -90
96 281 185 -188 -56 249 476 826 221 382 150 -95
106 286 180 -188 -41 235 475 821 216 378 145 -109
96 292 194 -195 -34 235 475 821 221 373 145 -109
96 287 189 -193 -46 245 470 820 216 373 145 -99
106 287 180 -190 -44 240 460 810 211 373 150 -99
81 263 180 -195 -34 235 460 804 211 368 141 -107
77 253 175 -171 -46 223 470 814 216 367 141 -102
86 258 170 -164 -46 215 469 809 206 377 151 -93
86 263 175 -171 -39 216 469 809 206 367 141 -107
96 268 170 -173 -41 221 474 809 206 361 141 -107
111 282 170 -181 -34 221 469 808 201 366 141 -107
96 282 185 -195 -27 229 474 813 211 356 131 -117
81 287 204 -188 -41 236 474 813 216 361 136 -106
86 263 175 -183 -59 248 474 813 211 371 146 -101
77 248 170 -173 -41 221 474 812 216 366 136 -111
77 258 180 -161 -44 211 479 817 213 371 146 -101
77 249 170 -166 -49 221 484 811 208 371 141 -111
81 264 181 -161 -44 211 478 806 208 366 131 -121
96 279 181 -171 -46 224 483 811 208 371 136 -116
91 269 176 -186 -39 231 488 816 213 365 132 -114
86 269 181 -178 -39 224 473 806 208 370 137 -114
77 269 190 -176 -44 226 488 810 213 365 132 -114
67 264 195 -171 -54 231 488 815 218 375 137 -109
77 250 171 -164 -61 231 483 810 208 375 137 -109
72 241 166 -161 -44 211 488 815 208 375 132 -114
81 241 156 -154 -44 204 488 814 208 369 127 -119
86 265 176 -160 -34 199 488 814 208 369 128 -118
96 260 161 -174 -41 221 488 813 208 374 128 -128
91 275 181 -177 -29 211 493 818 218 369 128 -123
86 260 171 -182 -41 229 493 818 213 377 138 -113
77 241 161 -172 -39 217 488 813 213 373 133 -118
57 241 181 -157 -39 203 488 818 213 368 128 -118
67 241 171 -148 -59 212 493 817 213 373 133 -118
81 265 181 -152 -49 208 496 817 213 373 133 -116
91 275 181 -172 -46 225 492 817 213 368 128 -121
96 275 176 -182 -41 230 487 807 203 368 128 -121
96 275 176 -184 -37 227 487 811 213 358 114 -135
91 260 166 -184 -37 227 487 811 213 368 128 -126
86 255 166 -175 -36 216 482 810 213 372 133 -121
77 245 166 -171 -39 213 495 820 218 367 128 -121
62 245 181 -161 -43 209 491 815 213 376 138 -110
77 255 177 -153 -58 216 491 815 208 372 128 -115
91 255 162 -166 -48 218 495 820 213 367 123 -125
96 265 167 -173 -34 211 491 814 208 372 128 -125
96 276 177 -180 -34 218 491 809 208 367 119 -130
91 266 172 -185 -39 228 495 814 213 366 123 -125
86 251 162 -178 -39 221 486 809 213 375 133 -120
77 242 162 -168 -36 209 495 813 218 371 129 -123
77 246 167 -158 -41 204 500 822 218 374 134 -118
77 251 173 -161 -43 209 499 817 208 379 139 -113
72 261 188 -163 -46 213 494 817 208 370 124 -132
86 261 173 -166 -56 226 499 817 213 374 129 -123
106 271 163 -173 -41 219 494 817 208 379 129 -118
101 276 173 -188 -26 219 494 812 213 370 120 -132
91 261 168 -188 -34 227 494 811 218 374 129 -122
77 237 158 -175 -36 217 490 811 213 379 129 -122
67 242 173 -156 -39 200 494 816 218 374 129 -122
77 238 158 -153 -51 210 504 820 213 378 139 -112
77 252 173 -156 -39 200 499 815 208 378 134 -122
86 277 188 -163 -46 214 499 815 208 373 129 -127
97 296 197 -180 -48 234 490 799 199 373 125 -125
87 291 202 -196 -48 249 490 789 194 364 121 -129
63 306 241 -189 -56 249 490 779 190 364 116 -134
58 316 256 -184 -87 275 499 770 180 369 125 -120
68 331 261 -186 -97 288 514 765 180 363 125 -120
78 370 291 -198 -95 297 508 750 175 372 135 -115
87 395 306 -223 -104 332 489 739 185 382 145 -110
102 439 335 -240 -107 351 454 730 209 415 185 -70
126 458 330 -269 -114 388 445 735 229 464 234 -36
136 468 330 -291 -100 395 449 768 278 493 258 -16
156 512 355 -301 -95 400 445 826 346 542 302 7
185 488 301 -333 -97 434 434 869 414 615 361 51
200 429 228 -335 -56 395 405 923 507 679 409 80
239 356 117 -313 -12 329 400 1006 619 776 478 129
287 248 -39 -296 62 237 419 1152 766 859 517 146
312 122 -189 -268 163 104 444 1338 951 947 531 126
346 68 -276 -217 251 -32 453 1450 1044 1064 570 122
370 24 -345 -207 312 -103 453 1522 1102 1093 551 87
351 -29 -380 -197 358 -159 434 1537 1107 1102 527 68
326 -73 -400 -161 366 -204 375 1395 961 1078 502 58
312 -131 -444 -126 363 -236 322 1170 766 941 400 0
326 -180 -507 -90 378 -287 252 935 575 775 302 -47
322 -224 -546 -73 417 -343 194 759 419 634 214 -91
322 -253 -575 -48 434 -384 150 661 317 506 136 -145
287 -283 -570 -34 448 -413 135 583 214 433 102 -150
258 -330 -590 -2 429 -426 135 471 92 340 39 -189
224 -355 -580 35 423 -461 150 339 -43 232 -24 -233
165 -369 -536 64 401 -468 169 188 -200 124 -87 -272
131 -360 -492 101 350 -454 208 60 -351 -2 -169 -319
92 -384 -477 113 311 -427 335 40 -429 -114 -243 -372
53 -389 -443 145 284 -432 394 -17 -527 -192 -301 -421
19 -379 -399 167 247 -417 452 -82 -610 -280 -369 -470
0 -379 -379 179 208 -390 550 -82 -649 -353 -423 -509
-34 -355 -319 189 189 -380 643 -73 -678 -402 -467 -548
-68 -321 -251 193 141 -339 721 -48 -673 -441 -511 -587
-107 -286 -178 193 90 -288 799 -9 -653 -450 -526 -606
-146 -272 -125 195 33 -233 906 38 -629 -442 -535 -620
-161 -243 -80 207 -11 -199 988 68 -605 -432 -550 -645
-165 -203 -37 200 -41 -162 1013 77 -595 -412 -535 -635
-185 -139 45 183 -65 -121 949 72 -585 -393 -521 -625
-190 -95 94 162 -115 -46 876 67 -561 -373 -501 -610
-190 -41 147 142 -142 0 852 76 -536 -334 -462 -576
-185 11 197 116 -169 52 842 90 -512 -301 -432 -555
-185 65 250 86 -191 104 777 90 -488 -272 -407 -525
-195 89 285 60 -218 158 699 89 -468 -238 -368 -491
-195 99 294 52 -240 187 646 118 -429 -213 -344 -472
-170 85 255 47 -245 197 611 153 -385 -166 -300 -438
-150 105 255 42 -213 170 553 182 -351 -117 -256 -403
-121 129 250 22 -203 180 445 211 -312 -83 -232 -389
-72 149 221 -3 -185 191 348 226 -285 -39 -192 -349
-38 164 202 -37 -146 186 289 249 -256 -14 -172 -339
-8 178 187 -61 -119 183 236 293 -207 9 -153 -319
1 193 191 -83 -97 183 187 317 -183 58 -109 -280
1 178 176 -95 -93 193 161 347 -154 82 -84 -261
20 188 167 -88 -86 178 186 409 -100 107 -65 -246
30 217 187 -103 -71 178 225 462 -61 150 -31 -217
40 242 201 -122 -76 203 264 516 -22 179 -6 -205
83 281 196 -139 -79 222 313 579 21 213 12 -186
98 315 216 -181 -54 240 366 638 70 252 37 -171
108 325 216 -205 -57 267 415 696 119 286 61 -156
103 320 216 -215 -52 272 440 735 153 335 105 -113
93 310 216 -210 -54 270 449 749 167 360 120 -108
103 310 206 -200 -59 265 464 763 177 368 125 -108
88 300 211 -205 -49 260 464 768 182 383 134 -92
88 305 216 -193 -59 257 464 773 182 388 139 -92
103 315 211 -195 -62 262 469 782 192 387 134 -97
113 316 201 -208 -52 266 459 781 182 397 144 -87
123 321 196 -213 -42 261 459 781 187 392 134 -102
123 330 206 -220 -35 261 464 791 202 392 134 -97
113 326 211 -225 -40 271 458 791 197 406 155 -80
98 316 216 -217 -47 271 458 796 202 401 150 -85
118 306 187 -205 -57 268 458 800 206 406 155 -75
98 296 196 -211 -32 249 458 799 202 421 165 -70
103 316 211 -196 -47 249 463 804 206 411 155 -80
127 321 192 -209 -52 266 463 809 211 416 155 -80
123 335 211 -223 -30 258 457 804 202 420 160 -75
118 345 226 -228 -42 276 457 808 211 410 150 -89
132 335 201 -231 -52 288 457 803 211 420 160 -79
123 321 197 -233 -32 271 452 793 206 420 160 -79
98 316 217 -221 -35 261 462 807 216 415 155 -84
108 322 212 -206 -57 269 457 807 211 430 169 -69
123 322 197 -214 -49 269 457 807 211 429 165 -74
123 327 202 -221 -35 262 457 807 211 424 160 -74
127 336 207 -223 -37 267 457 806 206 424 161 -72
127 336 207 -231 -37 274 452 806 211 418 156 -82
127 346 217 -231 -37 274 451 806 216 418 156 -82
118 336 218 -236 -42 284 446 801 211 428 166 -67
123 323 198 -226 -47 279 446 800 211 423 166 -72
118 323 203 -221 -35 262 446 800 211 423 170 -72
118 323 203 -218 -40 264 446 804 211 428 166 -67
118 342 223 -218 -40 264 451 809 216 423 167 -71
118 357 238 -228 -49 284 446 804 206 433 171 -66
142 352 208 -236 -57 299 437 794 202 423 167 -71
142 342 198 -245 -30 281 441 794 202 418 157 -76
113 328 213 -240 -25 272 441 798 211 422 162 -76
118 318 198 -218 -49 272 441 803 216 432 176 -62
113 318 203 -216 -39 259 446 808 217 432 176 -57
108 342 233 -214 -44 262 446 803 212 436 186 -50
118 352 233 -223 -61 289 446 797 207 432 176 -64
132 352 218 -233 -56 294 437 792 203 427 171 -74
132 362 228 -240 -42 286 432 787 198 426 171 -69
142 352 208 -245 -46 296 431 796 212 421 171 -69
137 362 224 -245 -32 282 421 791 207 440 181 -60
123 347 224 -248 -42 295 426 787 203 430 181 -55
108 323 214 -233 -49 287 426 787 207 430 181 -54
118 342 224 -214 -51 270 426 786 207 434 181 -49
123 367 243 -228 -51 285 436 795 212 434 181 -54
137 352 214 -244 -59 307 425 795 212 439 191 -49
147 363 214 -244 -37 285 410 776 193 439 186 -54
147 368 219 -254 -32 290 415 785 207 420 167 -68
147 358 209 -256 -34 296 420 789 212 439 186 -49
137 353 214 -251 -29 286 410 779 207 444 192 -47
118 363 243 -244 -37 286 415 788 217 439 192 -42
127 358 229 -239 -61 305 415 788 212 453 202 -27
132 353 219 -241 -49 296 410 779 198 448 197 -27
137 368 229 -241 -42 288 410 784 203 438 187 -52
147 377 229 -251 -44 301 410 783 203 438 192 -42
152 382 229 -261 -39 305 404 778 203 438 192 -42
152 377 224 -267 -37 308 404 783 212 433 192 -41
137 387 248 -264 -34 303 399 783 217 442 202 -26
123 377 253 -262 -54 320 399 782 222 452 207 -26
127 363 234 -250 -64 318 399 782 217 457 216 -21
137 378 239 -245 -51 301 399 776 212 457 216 -21
142 383 239 -257 -49 310 399 781 217 451 211 -26
147 388 239 -262 -46 314 395 781 212 451 207 -26
152 408 253 -267 -44 316 395 776 217 451 208 -19
152 422 269 -279 -49 333 395 785 227 451 217 -24
162 413 249 -286 -56 348 390 780 222 466 227 -10
157 399 240 -286 -42 333 380 770 222 461 222 -10
142 399 254 -277 -39 321 380 775 227 461 227 -10
147 399 249 -269 -54 328 385 784 232 471 237 0
157 409 249 -272 -49 326 385 779 227 475 243 1
166 418 249 -281 -44 331 385 783 232 470 238 1
176 428 249 -291 -39 336 379 778 232 474 243 6
166 457 289 -301 -34 341 374 782 242 474 243 6
171 453 280 -311 -59 375 374 787 251 479 253 16
176 448 270 -311 -51 367 364 782 242 489 262 25
162 443 280 -311 -44 360 369 792 256 479 253 25
157 423 265 -301 -56 363 364 791 251 499 277 36
166 433 265 -289 -51 345 358 786 247 498 272 31
176 457 280 -299 -46 350 363 801 266 493 267 27
182 477 294 -316 -49 370 358 796 266 508 287 46
202 477 275 -329 -54 387 354 795 266 511 287 41
206 487 280 -339 -34 377 354 800 278 511 287 41
202 482 280 -346 -34 384 349 804 288 526 296 51
197 482 284 -341 -37 382 344 809 292 531 301 57
187 482 294 -339 -42 385 349 819 302 536 311 67
187 487 299 -334 -51 390 344 819 297 555 321 76
211 492 280 -336 -54 395 349 823 302 550 316 62
216 512 294 -351 -32 388 348 833 317 555 326 76
226 532 304 -363 -37 405 343 842 322 570 335 81
226 532 305 -378 -37 420 348 852 331 575 335 86
211 537 324 -378 -37 420 348 852 341 579 341 93
216 527 310 -373 -54 432 343 856 341 589 351 103
216 522 305 -370 -45 421 353 865 356 589 351 98
206 532 324 -368 -43 416 357 874 361 608 366 117
216 527 310 -368 -57 430 362 879 366 603 366 108
231 532 300 -370 -45 421 367 894 375 613 366 108
231 556 324 -380 -33 418 362 894 375 617 376 117
250 561 310 -392 -45 443 372 908 395 617 371 113
246 551 305 -404 -28 438 372 908 405 631 385 123
236 546 310 -397 -28 430 377 917 405 635 385 128
216 537 320 -390 -35 430 387 932 424 635 390 128
221 528 305 -375 -50 430 392 941 429 650 400 133
216 533 315 -373 -40 418 401 940 429 655 405 138
226 557 329 -373 -47 426 410 955 434 650 395 128
246 567 320 -390 -50 445 415 959 439 655 401 130
250 581 329 -404 -35 445 410 954 439 665 411 140
255 591 334 -414 -38 458 420 969 453 660 401 130
246 586 339 -422 -38 466 420 974 458 679 416 140
241 578 334 -414 -45 466 425 974 458 674 416 135
231 558 324 -407 -45 458 429 983 463 678 411 140
221 548 324 -392 -45 444 438 982 458 678 416 140
221 543 320 -382 -50 439 458 992 468 668 407 126
246 558 310 -380 -47 434 463 1007 478 678 407 126
246 578 330 -400 -30 436 468 1006 473 683 412 126
236 568 330 -409 -40 456 477 1006 473 678 397 116
231 548 316 -401 -45 451 482 1000 473 672 402 116
221 548 325 -388 -40 434 492 1005 473 667 392 107
202 529 325 -383 -50 439 507 1010 473 663 382 107
197 514 316 -364 -60 429 516 1010 463 663 382 109
192 504 311 -354 -57 417 525 1005 453 657 373 89
187 524 335 -347 -57 409 530 1000 449 642 358 70
197 529 331 -354 -72 431 545 999 439 637 353 70
197 524 326 -362 -65 431 554 994 429 623 338 60
197 509 312 -359 -62 427 559 989 424 608 319 40
167 504 336 -352 -55 412 559 973 410 608 319 50
148 456 307 -335 -82 422 569 973 405 588 309 37
158 446 287 -301 -77 383 579 968 395 584 299 28
153 446 292 -302 -62 368 589 968 390 569 285 23
153 465 312 -299 -67 371 598 968 381 563 280 13
158 471 312 -309 -77 391 598 958 372 558 275 13
148 461 312 -314 -74 393 594 948 357 543 256 -6
143 457 312 -304 -79 388 594 943 357 524 246 -21
158 461 302 -299 -82 386 589 928 337 529 252 -9
128 427 297 -309 -69 384 584 918 332 509 232 -29
119 413 292 -277 -82 364 589 918 323 500 227 -34
119 413 292 -265 -84 354 588 913 313 499 227 -29
109 398 287 -265 -84 355 588 917 313 489 217 -43
119 408 288 -253 -86 346 583 901 298 484 208 -48
138 413 274 -262 -82 350 583 891 289 463 198 -57
124 413 288 -275 -65 346 573 891 293 459 188 -62
124 408 284 -267 -79 353 568 882 284 459 193 -57
119 393 274 -265 -77 348 562 872 269 449 183 -62
104 380 274 -255 -74 336 562 877 274 439 174 -72
109 375 264 -241 -82 328 552 871 264 439 183 -62
104 370 264 -241 -74 321 552 866 254 429 169 -77
114 380 264 -236 -77 319 552 866 254 424 165 -80
124 380 254 -245 -72 324 548 856 245 424 165 -80
114 380 264 -250 -62 319 543 850 245 418 155 -89
114 389 274 -245 -72 324 538 849 245 409 155 -89
109 356 245 -250 -77 333 528 840 230 414 155 -89
99 346 245 -232 -67 303 528 840 230 399 145 -89
94 351 254 -222 -71 298 532 849 240 399 145 -89
104 337 230 -222 -79 305 532 840 230 409 151 -83
104 351 245 -220 -62 286 532 835 225 394 141 -93
104 361 254 -227 -69 300 527 834 220 393 137 -93
119 361 240 -232 -74 310 517 829 215 388 137 -108
128 356 225 -239 -59 303 512 829 215 383 127 -103
109 356 245 -242 -47 293 512 824 220 387 137 -98
104 341 235 -232 -67 303 508 828 225 387 141 -98
89 337 245 -222 -64 290 508 823 215 392 141 -91
89 341 249 -212 -76 293 512 822 206 382 132 -91
104 327 221 -215 -79 298 508 817 206 377 127 -111
109 341 231 -215 -57 276 508 817 206 377 127 -106
109 351 241 -224 -59 288 503 812 196 377 122 -111
109 351 241 -229 -64 298 508 817 210 368 117 -116
104 337 231 -229 -64 298 503 811 206 382 137 -101
99 337 236 -220 -62 286 503 806 201 377 132 -100
99 332 231 -217 -67 288 507 811 206 367 127 -100
99 327 226 -215 -64 283 502 806 196 372 137 -95
89 337 247 -212 -62 278 502 805 191 367 127 -100
94 342 247 -212 -76 293 502 805 191 357 122 -105
119 347 227 -217 -74 295 502 799 191 357 117 -110
119 347 227 -232 -52 289 497 799 196 362 122 -115
109 347 237 -232 -52 289 501 799 196 361 123 -108
94 342 247 -227 -62 294 496 795 196 366 133 -93
99 333 232 -217 -74 296 496 799 203 361 128 -98
94 328 232 -215 -64 284 501 798 198 370 138 -88
94 338 242 -210 -67 282 491 789 188 365 133 -88
94 352 256 -215 -71 291 501 798 198 355 123 -103
109 367 256 -222 -79 306 496 789 188 365 133 -93
124 372 247 -237 -71 314 491 783 188 360 123 -102
119 382 261 -246 -59 312 496 788 198 355 118 -107
109 357 247 -249 -69 324 481 772 183 370 133 -87
104 338 232 -232 -67 305 480 772 188 355 123 -97
89 329 237 -220 -62 288 490 782 193 360 128 -92
89 339 247 -208 -71 285 490 782 188 370 138 -82
109 343 233 -213 -76 295 495 787 193 364 133 -92
109 373 262 -225 -59 290 495 786 188 369 143 -80
119 363 243 -240 -74 319 485 771 183 364 139 -85
124 373 248 -240 -59 305 480 766 178 359 134 -95
124 383 257 -247 -59 312 480 771 188 359 139 -90
114 384 267 -252 -64 322 480 770 183 364 139 -80
94 349 252 -247 -74 327 475 770 188 363 148 -75
94 349 252 -221 -76 302 475 764 178 368 143 -75
99 359 257 -221 -76 303 480 769 183 363 144 -79
109 359 248 -228 -76 311 480 774 188 363 140 -94
114 379 262 -233 -67 306 485 774 188 371 154 -70
133 379 243 -246 -71 323 480 774 188 371 149 -79
128 379 248 -256 -52 313 466 768 188 367 144 -79
114 384 267 -253 -57 315 469 763 188 367 149 -74
114 369 252 -248 -74 328 474 773 198 371 154 -74
109 359 248 -241 -67 313 465 768 188 381 164 -58
109 364 252 -234 -67 306 469 767 188 371 154 -72
124 374 248 -236 -69 311 479 772 193 371 154 -72
128 374 243 -248 -59 313 469 766 188 376 164 -63
133 393 257 -251 -54 311 464 771 188 375 154 -72
133 403 267 -263 -59 328 468 776 203 375 149 -77
128 384 252 -268 -64 337 464 771 198 390 169 -62
114 359 243 -256 -59 320 459 771 193 380 164 -67
109 364 252 -236 -63 303 468 780 208 380 164 -67
109 359 249 -236 -70 311 473 785 208 395 179 -52
119 365 244 -234 -68 306 473 785 203 395 174 -57
124 375 249 -241 -60 306 468 789 208 389 174 -67
143 404 258 -248 -60 313 468 784 208 389 169 -62
138 404 263 -273 -55 332 473 788 212 394 170 -69
133 389 253 -270 -60 335 463 783 212 398 175 -60
124 375 249 -261 -58 324 463 787 217 398 180 -55
119 365 244 -248 -60 314 472 797 222 398 180 -60
109 370 259 -241 -60 307 472 797 217 407 184 -50
109 365 254 -239 -72 316 472 802 222 407 189 -55
129 375 245 -236 -70 312 477 801 222 407 184 -60
144 389 245 -252 -55 312 472 796 217 407 184 -49
134 389 254 -266 -48 319 467 801 223 403 180 -59
120 389 269 -262 -58 324 467 806 233 407 180 -59
120 380 259 -254 -72 332 467 800 228 417 189 -49
115 361 245 -249 -68 322 467 810 238 406 180 -49
120 366 245 -237 -63 305 472 814 238 416 189 -54
120 376 254 -242 -60 308 472 814 238 421 189 -54
125 376 250 -247 -65 317 472 819 243 416 190 -47
139 386 245 -249 -60 315 472 814 233 421 195 -52
149 400 250 -262 -50 317 477 819 243 411 185 -62
139 395 254 -274 -48 327 466 819 243 415 181 -62
134 406 269 -266 -55 327 462 813 238 415 195 -52
120 372 250 -269 -65 339 462 813 238 415 190 -57
110 352 241 -245 -63 313 457 813 238 414 190 -57
115 357 241 -230 -63 298 476 826 248 409 191 -51
115 362 246 -235 -60 300 481 831 248 424 196 -51
115 367 251 -237 -63 305 475 825 238 424 196 -51
139 382 241 -240 -65 311 475 825 243 414 191 -61
139 382 241 -259 -48 314 480 830 248 414 186 -65
134 387 251 -259 -48 314 470 820 238 424 191 -56
125 387 260 -259 -55 321 475 830 248 414 191 -56
120 367 246 -254 -65 326 475 835 253 424 196 -49
115 362 246 -242 -60 309 470 824 243 424 191 -54
120 362 241 -237 -63 306 475 829 243 413 186 -63
129 362 231 -240 -58 304 485 834 248 413 186 -54
134 372 236 -245 -48 299 475 823 238 413 186 -63
139 377 236 -252 -48 306 479 833 243 408 177 -68
144 372 226 -257 -46 309 479 832 248 413 186 -63
120 372 251 -257 -38 301 474 827 243 418 196 -48
110 367 255 -245 -63 314 474 832 248 412 191 -58
110 357 246 -237 -70 314 474 832 248 422 196 -53
105 352 246 -232 -65 304 479 832 248 417 186 -58
129 363 231 -227 -68 301 489 837 243 416 182 -62
129 373 241 -245 -48 299 484 831 238 411 182 -58
125 392 265 -249 -53 309 479 831 238 406 177 -67
134 383 246 -258 -68 331 484 836 248 406 183 -60
125 353 226 -258 -53 316 474 825 238 416 187 -56
120 348 227 -238 -48 292 474 825 238 401 178 -65
110 353 242 -233 -50 289 489 834 248 401 178 -65
110 348 237 -231 -63 300 494 839 243 411 183 -56
125 344 217 -228 -60 295 494 834 238 406 178 -60
125 358 232 -233 -43 283 489 834 238 401 173 -70
134 373 237 -241 -50 297 493 839 243 405 178 -64
134 378 242 -253 -48 307 493 839 243 405 178 -69
120 373 252 -255 -50 312 483 828 243 410 183 -64
110 344 232 -246 -63 315 483 828 233 405 178 -64
111 345 233 -226 -59 290 493 838 248 400 173 -69
106 335 228 -227 -59 291 493 838 239 415 187 -59
106 325 219 -219 -60 284 492 837 239 405 178 -63
86 306 219 -214 -55 274 487 832 240 404 179 -63
96 320 224 -195 -65 264 492 842 244 404 174 -62
106 325 219 -207 -62 274 492 832 235 414 189 -52
96 335 238 -214 -55 274 492 836 235 399 174 -67
96 325 228 -214 -70 288 492 831 230 399 174 -62
116 335 219 -209 -65 279 487 825 230 394 174 -67
101 335 233 -224 -50 279 492 835 240 394 164 -86
86 335 248 -217 -65 286 482 830 240 403 184 -56
106 340 233 -209 -79 293 482 825 235 403 174 -66
86 315 228 -222 -62 288 482 815 225 403 174 -71
77 296 219 -200 -70 274 477 825 235 397 174 -66
91 297 204 -185 -70 259 497 839 235 397 164 -75
96 302 204 -192 -55 252 492 829 225 397 169 -75
111 326 214 -197 -53 254 497 829 230 388 154 -85
106 326 219 -217 -50 271 497 833 235 388 155 -88
91 321 228 -214 -55 274 486 833 244 402 165 -83
96 321 224 -205 -67 276 486 837 244 407 175 -69
77 302 224 -207 -62 274 496 832 235 407 175 -69
81 298 214 -187 -72 264 486 822 215 392 165 -73
91 298 204 -187 -65 257 496 827 220 378 146 -83
101 317 214 -192 -55 253 496 832 230 377 151 -88
111 332 219 -207 -55 267 490 827 225 387 161 -77
106 342 234 -219 -53 277 500 836 235 382 156 -82
106 352 244 -222 -62 289 500 836 235 391 166 -72
96 352 254 -227 -67 299 500 831 230 391 166 -72
77 342 264 -222 -77 304 504 835 235 382 161 -72
72 342 268 -207 -92 304 514 840 244 390 166 -68
86 347 259 -205 -97 306 514 834 235 395 171 -68
81 347 264 -214 -84 305 519 834 230 386 156 -80
101 357 254 -212 -89 307 519 834 225 375 147 -90
116 361 245 -227 -75 307 524 834 230 375 147 -90
111 376 265 -236 -62 305 518 844 240 380 156 -80
111 376 265 -241 -75 322 513 839 240 389 166 -75
106 376 269 -241 -75 322 503 833 240 389 166 -75
91 381 289 -240 -79 325 503 838 240 394 166 -75
96 386 289 -235 -97 337 503 838 235 394 171 -69
96 386 289 -240 -94 339 513 842 235 394 171 -69
111 400 289 -240 -94 339 503 837 230 399 181 -65
135 410 274 -254 -87 347 489 831 230 389 171 -65
125 416 289 -271 -67 344 479 831 240 388 171 -69
111 406 294 -269 -79 354 469 826 235 398 181 -60
116 382 265 -257 -89 351 469 826 235 393 171 -65
106 372 265 -247 -72 326 469 831 240 398 177 -53
116 387 269 -237 -77 321 469 831 235 408 187 -48
125 397 269 -249 -75 330 469 830 235 403 182 -53
135 421 284 -260 -70 335 464 830 235 402 182 -58
145 436 290 -277 -72 355 459 835 241 402 182 -58
140 421 280 -290 -70 365 454 840 250 407 187 -53
140 406 266 -280 -67 352 449 834 250 417 196 -48
135 387 251 -272 -60 338 434 813 231 416 196 -47
116 362 246 -260 -55 321 434 808 231 396 187 -52
106 367 261 -238 -62 306 429 803 221 396 182 -57
101 387 285 -236 -75 316 434 803 216 386 172 -62
130 393 261 -243 -89 338 438 818 231 386 172 -62
160 422 261 -260 -62 328 428 808 226 401 187 -52
164 422 256 -290 -48 343 414 807 231 401 187 -52
160 402 241 -292 -43 340 409 807 231 406 197 -45
150 398 246 -280 -39 323 414 802 231 411 202 -30
150 398 246 -272 -46 323 423 817 241 405 193 -40
150 383 231 -272 -46 323 443 840 260 410 197 -35
135 379 241 -265 -39 308 448 844 260 434 212 -25
135 384 246 -255 -51 311 457 854 270 429 207 -35
140 394 251 -258 -54 316 453 849 260 439 212 -30
164 389 222 -265 -54 323 442 839 255 434 213 -34
160 394 231 -275 -27 307 437 835 255 424 203 -44
150 360 207 -275 -34 314 442 839 260 419 198 -44
135 335 197 -253 -27 285 437 824 245 428 203 -39
121 330 207 -233 -29 268 447 834 245 414 194 -49
116 325 207 -224 -41 270 447 824 241 413 194 -49
116 340 222 -220 -44 268 447 814 231 408 189 -61
101 345 242 -227 -51 283 452 823 245 403 179 -66
86 330 242 -222 -68 295 442 818 236 418 194 -57
96 335 237 -208 -76 289 456 822 241 408 179 -76
96 335 237 -215 -68 289 466 822 226 403 174 -76
86 291 203 -215 -68 289 461 812 211 383 159 -86
86 272 184 -188 -56 249 471 832 231 369 150 -96
77 281 203 -178 -46 230 481 832 231 388 164 -85
86 291 203 -178 -61 245 481 826 226 388 159 -90
96 281 185 -188 -56 249 476 826 221 382 150 -95
106 286 180 -188 -41 235 475 821 216 378 145 -109
96 292 194 -195 -34 235 475 821 221 373 145 -109
96 287 189 -193 -46 245 470 820 216 373 145 -99
106 287 180 -190 -44 240 460 810 211 373 150 -99
81 263 180 -195 -34 235 460 804 211 368 141 -107
77 253 175 -171 -46 223 470 814 216 367 141 -102
86 258 170 -164 -46 215 469 809 206 377 151 -93
86 263 175 -171 -39 216 469 809 206 367 141 -107
96 268 170 -173 -41 221 474 809 206 361 141 -107
111 282 170 -181 -34 221 469 808 201 366 141 -107
96 282 185 -195 -27 229 474 813 211 356 131 -117
81 287 204 -188 -41 236 474 813 216 361 136 -106
86 263 175 -183 -59 248 474 813 211 371 146 -101
77 248 170 -173 -41 221 474 812 216 366 136 -111
77 258 180 -161 -44 211 479 817 213 371 146 -101
77 249 170 -166 -49 221 484 811 208 371 141 -111
81 264 181 -161 -44 211 478 806 208 366 131 -121
96 279 181 -171 -46 224 483 811 208 371 136 -116
91 269 176 -186 -39 231 488 816 213 365 132 -114
86 269 181 -178 -39 224 473 806 208 370 137 -114
77 269 190 -176 -44 226 488 810 213 365 132 -114
67 264 195 -171 -54 231 488 815 218 375 137 -109
77 250 171 -164 -61 231 483 810 208 375 137 -109
72 241 166 -161 -44 211 488 815 208 375 132 -114
81 241 156 -154 -44 204 488 814 208 369 127 -119
86 265 176 -160 -34 199 488 814 208 369 128 -118
96 260 161 -174 -41 221 488 813 208 374 128 -128
91 275 181 -177 -29 211 493 818 218 369 128 -123
86 260 171 -182 -41 229 493 818 213 377 138 -113
77 241 161 -172 -39 217 488 813 213 373 133 -118
57 241 181 -157 -39 203 488 818 213 368 128 -118
67 241 171 -148 -59 212 493 817 213 373 133 -118
81 265 181 -152 -49 208 496 817 213 373 133 -116
91 275 181 -172 -46 225 492 817 213 368 128 -121
96 275 176 -182 -41 230 487 807 203 368 128 -121
96 275 176 -184 -37 227 487 811 213 358 114 -135
91 260 166 -184 -37 227 487 811 213 368 128 -126
86 255 166 -175 -36 216 482 810 213 372 133 -121
77 245 166 -171 -39 213 495 820 218 367 128 -121
62 245 181 -161 -43 209 491 815 213 376 138 -110
77 255 177 -153 -58 216 491 815 208 372 128 -115
91 255 162 -166 -48 218 495 820 213 367 123 -125
96 265 167 -173 -34 211 491 814 208 372 128 -125
96 276 177 -180 -34 218 491 809 208 367 119 -130
91 266 172 -185 -39 228 495 814 213 366 123 -125
86 251 162 -178 -39 221 486 809 213 375 133 -120
77 242 162 -168 -36 209 495 813 218 371 129 -123
77 246 167 -158 -41 204 500 822 218 374 134 -118
77 251 173 -161 -43 209 499 817 208 379 139 -113
72 261 188 -163 -46 213 494 817 208 370 124 -132
86 261 173 -166 -56 226 499 817 213 374 129 -123
106 271 163 -173 -41 219 494 817 208 379 129 -118
101 276 173 -188 -26 219 494 812 213 370 120 -132
91 261 168 -188 -34 227 494 811 218 374 129 -122
77 237 158 -175 -36 217 490 811 213 379 129 -122
67 242 173 -156 -39 200 494 816 218 374 129 -122
77 238 158 -153 -51 210 504 820 213 378 139 -112
77 252 173 -156 -39 200 499 815 208 378 134 -122
86 277 188 -163 -46 214 499 815 208 373 129 -127
97 296 197 -180 -48 234 490 799 199 373 125 -125
87 291 202 -196 -48 249 490 789 194 364 121 -129
63 306 241 -189 -56 249 490 779 190 364 116 -134
58 316 256 -184 -87 275 499 770 180 369 125 -120
68 331 261 -186 -97 288 514 765 180 363 125 -120
78 370 291 -198 -95 297 508 750 175 372 135 -115
87 395 306 -223 -104 332 489 739 185 382 145 -110
102 439 335 -240 -107 351 454 730 209 415 185 -70
126 458 330 -269 -114 388 445 735 229 464 234 -36
136 468 330 -291 -100 395 449 768 278 493 258 -16
156 512 355 -301 -95 400 445 826 346 542 302 7
185 488 301 -333 -97 434 434 869 414 615 361 51
200 429 228 -335 -56 395 405 923 507 679 409 80
239 356 117 -313 -12 329 400 1006 619 776 478 129
287 248 -39 -296 62 237 419 1152 766 859 517 146
312 122 -189 -268 163 104 444 1338 951 947 531 126
346 68 -276 -217 251 -32 453 1450 1044 1064 570 122
370 24 -345 -207 312 -103 453 1522 1102 1093 551 87
351 -29 -380 -197 358 -159 434 1537 1107 1102 527 68
326 -73 -400 -161 366 -204 375 1395 961 1078 502 58
312 -131 -444 -126 363 -236 322 1170 766 941 400 0
326 -180 -507 -90 378 -287 252 935 575 775 302 -47
322 -224 -546 -73 417 -343 194 759 419 634 214 -91
322 -253 -575 -48 434 -384 150 661 317 506 136 -145
287 -283 -570 -34 448 -413 135 583 214 433 102 -150
258 -330 -590 -2 429 -426 135 471 92 340 39 -189
224 -355 -580 35 423 -461 150 339 -43 232 -24 -233
165 -369 -536 64 401 -468 169 188 -200 124 -87 -272
131 -360 -492 101 350 -454 208 60 -351 -2 -169 -319
92 -384 -477 113 311 -427 335 40 -429 -114 -243 -372
53 -389 -443 145 284 -432 394 -17 -527 -192 -301 -421
19 -379 -399 167 247 -417 452 -82 -610 -280 -369 -470
0 -379 -379 179 208 -390 550 -82 -649 -353 -423 -509
-34 -355 -319 189 189 -380 643 -73 -678 -402 -467 -548
-68 -321 -251 193 141 -339 721 -48 -673 -441 -511 -587
-107 -286 -178 193 90 -288 799 -9 -653 -450 -526 -606
-146 -272 -125 195 33 -233 906 38 -629 -442 -535 -620
-161 -243 -80 207 -11 -199 988 68 -605 -432 -550 -645
-165 -203 -37 200 -41 -162 1013 77 -595 -412 -535 -635
-185 -139 45 183 -65 -121 949 72 -585 -393 -521 -625
-190 -95 94 162 -115 -46 876 67 -561 -373 -501 -610
-190 -41 147 142 -142 0 852 76 -536 -334 -462 -576
-185 11 197 116 -169 52 842 90 -512 -301 -432 -555
-185 65 250 86 -191 104 777 90 -488 -272 -407 -525
-195 89 285 60 -218 158 699 89 -468 -238 -368 -491
-195 99 294 52 -240 187 646 118 -429 -213 -344 -472
-170 85 255 47 -245 197 611 153 -385 -166 -300 -438
-150 105 255 42 -213 170 553 182 -351 -117 -256 -403
-121 129 250 22 -203 180 445 211 -312 -83 -232 -389
-72 149 221 -3 -185 191 348 226 -285 -39 -192 -349
-38 164 202 -37 -146 186 289 249 -256 -14 -172 -339
-8 178 187 -61 -119 183 236 293 -207 9 -153 -319
1 193 191 -83 -97 183 187 317 -183 58 -109 -280
1 178 176 -95 -93 193 161 347 -154 82 -84 -261
20 188 167 -88 -86 178 186 409 -100 107 -65 -246
30 217 187 -103 -71 178 225 462 -61 150 -31 -217
40 242 201 -122 -76 203 264 516 -22 179 -6 -205
83 281 196 -139 -79 222 313 579 21 213 12 -186
98 315 216 -181 -54 240 366 638 70 252 37 -171
108 325 216 -205 -57 267 415 696 119 286 61 -156
103 320 216 -215 -52 272 440 735 153 335 105 -113
93 310 216 -210 -54 270 449 749 167 360 120 -108
103 310 206 -200 -59 265 464 763 177 368 125 -108
88 300 211 -205 -49 260 464 768 182 383 134 -92
88 305 216 -193 -59 257 464 773 182 388 139 -92
103 315 211 -195 -62 262 469 782 192 387 134 -97
113 316 201 -208 -52 266 459 781 182 397 144 -87
123 321 196 -213 -42 261 459 781 187 392 134 -102
123 330 206 -220 -35 261 464 791 202 392 134 -97
113 326 211 -225 -40 271 458 791 197 406 155 -80
98 316 216 -217 -47 271 458 796 202 401 150 -85
118 306 187 -205 -57 268 458 800 206 406 155 -75
98 296 196 -211 -32 249 458 799 202 421 165 -70
103 316 211 -196 -47 249 463 804 206 411 155 -80
127 321 192 -209 -52 266 463 809 211 416 155 -80
123 335 211 -223 -30 258 457 804 202 420 160 -75
118 345 226 -228 -42 276 457 808 211 410 150 -89
132 335 201 -231 -52 288 457 803 211 420 160 -79
123 321 197 -233 -32 271 452 793 206 420 160 -79
98 316 217 -221 -35 261 462 807 216 415 155 -84
108 322 212 -206 -57 269 457 807 211 430 169 -69
123 322 197 -214 -49 269 457 807 211 429 165 -74
123 327 202 -221 -35 262 457 807 211 424 160 -74
127 336 207 -223 -37 267 457 806 206 424 161 -72
127 336 207 -231 -37 274 452 806 211 418 156 -82
127 346 217 -231 -37 274 451 806 216 418 156 -82
118 336 218 -236 -42 284 446 801 211 428 166 -67
123 323 198 -226 -47 279 446 800 211 423 166 -72
118 323 203 -221 -35 262 446 800 211 423 170 -72
118 323 203 -218 -40 264 446 804 211 428 166 -67
118 342 223 -218 -40 264 451 809 216 423 167 -71
118 357 238 -228 -49 284 446 804 206 433 171 -66
142 352 208 -236 -57 299 437 794 202 423 167 -71
142 342 198 -245 -30 281 441 794 202 418 157 -76
113 328 213 -240 -25 272 441 798 211 422 162 -76
118 318 198 -218 -49 272 441 803 216 432 176 -62
113 318 203 -216 -39 259 446 808 217 432 176 -57
108 342 233 -214 -44 262 446 803 212 436 186 -50
118 352 233 -223 -61 289 446 797 207 432 176 -64
132 352 218 -233 -56 294 437 792 203 427 171 -74
132 362 228 -240 -42 286 432 787 198 426 171 -69
142 352 208 -245 -46 296 431 796 212 421 171 -69
137 362 224 -245 -32 282 421 791 207 440 181 -60
123 347 224 -248 -42 295 426 787 203 430 181 -55
108 323 214 -233 -49 287 426 787 207 430 181 -54
118 342 224 -214 -51 270 426 786 207 434 181 -49
123 367 243 -228 -51 285 436 795 212 434 181 -54
137 352 214 -244 -59 307 425 795 212 439 191 -49
147 363 214 -244 -37 285 410 776 193 439 186 -54
147 368 219 -254 -32 290 415 785 207 420 167 -68
147 358 209 -256 -34 296 420 789 212 439 186 -49
137 353 214 -251 -29 286 410 779 207 444 192 -47
118 363 243 -244 -37 286 415 788 217 439 192 -42
127 358 229 -239 -61 305 415 788 212 453 202 -27
132 353 219 -241 -49 296 410 779 198 448 197 -27
137 368 229 -241 -42 288 410 784 203 438 187 -52
147 377 229 -251 -44 301 410 783 203 438 192 -42
152 382 229 -261 -39 305 404 778 203 438 192 -42
152 377 224 -267 -37 308 404 783 212 433 192 -41
137 387 248 -264 -34 303 399 783 217 442 202 -26
123 377 253 -262 -54 320 399 782 222 452 207 -26
127 363 234 -250 -64 318 399 782 217 457 216 -21
137 378 239 -245 -51 301 399 776 212 457 216 -21
142 383 239 -257 -49 310 399 781 217 451 211 -26
147 388 239 -262 -46 314 395 781 212 451 207 -26
152 408 253 -267 -44 316 395 776 217 451 208 -19
152 422 269 -279 -49 333 395 785 227 451 217 -24
162 413 249 -286 -56 348 390 780 222 466 227 -10
157 399 240 -286 -42 333 380 770 222 461 222 -10
142 399 254 -277 -39 321 380 775 227 461 227 -10
147 399 249 -269 -54 328 385 784 232 471 237 0
157 409 249 -272 -49 326 385 779 227 475 243 1
166 418 249 -281 -44 331 385 783 232 470 238 1
176 428 249 -291 -39 336 379 778 232 474 243 6
166 457 289 -301 -34 341 374 782 242 474 243 6
171 453 280 -311 -59 375 374 787 251 479 253 16
176 448 270 -311 -51 367 364 782 242 489 262 25
162 443 280 -311 -44 360 369 792 256 479 253 25
157 423 265 -301 -56 363 364 791 251 499 277 36
166 433 265 -289 -51 345 358 786 247 498 272 31
176 457 280 -299 -46 350 363 801 266 493 267 27
182 477 294 -316 -49 370 358 796 266 508 287 46
202 477 275 -329 -54 387 354 795 266 511 287 41
206 487 280 -339 -34 377 354 800 278 511 287 41
202 482 280 -346 -34 384 349 804 288 526 296 51
197 482 284 -341 -37 382 344 809 292 531 301 57
187 482 294 -339 -42 385 349 819 302 536 311 67
187 487 299 -334 -51 390 344 819 297 555 321 76
211 492 280 -336 -54 395 349 823 302 550 316 62
216 512 294 -351 -32 388 348 833 317 555 326 76
226 532 304 -363 -37 405 343 842 322 570 335 81
226 532 305 -378 -37 420 348 852 331 575 335 86
211 537 324 -378 -37 420 348 852 341 579 341 93
216 527 310 -373 -54 432 343 856 341 589 351 103
216 522 305 -370 -45 421 353 865 356 589 351 98
206 532 324 -368 -43 416 357 874 361 608 366 117
216 527 310 -368 -57 430 362 879 366 603 366 108
231 532 300 -370 -45 421 367 894 375 613 366 108
231 556 324 -380 -33 418 362 894 375 617 376 117
250 561 310 -392 -45 443 372 908 395 617 371 113
246 551 305 -404 -28 438 372 908 405 631 385 123
236 546 310 -397 -28 430 377 917 405 635 385 128
216 537 320 -390 -35 430 387 932 424 635 390 128
221 528 305 -375 -50 430 392 941 429 650 400 133
216 533 315 -373 -40 418 401 940 429 655 405 138
226 557 329 -373 -47 426 410 955 434 650 395 128
246 567 320 -390 -50 445 415 959 439 655 401 130
250 581 329 -404 -35 445 410 954 439 665 411 140
255 591 334 -414 -38 458 420 969 453 660 401 130
246 586 339 -422 -38 466 420 974 458 679 416 140
241 578 334 -414 -45 466 425 974 458 674 416 135
231 558 324 -407 -45 458 429 983 463 678 411 140
221 548 324 -392 -45 444 438 982 458 678 416 140
221 543 320 -382 -50 439 458 992 468 668 407 126
246 558 310 -380 -47 434 463 1007 478 678 407 126
246 578 330 -400 -30 436 468 1006 473 683 412 126
236 568 330 -409 -40 456 477 1006 473 678 397 116
231 548 316 -401 -45 451 482 1000 473 672 402 116
221 548 325 -388 -40 434 492 1005 473 667 392 107
202 529 325 -383 -50 439 507 1010 473 663 382 107
197 514 316 -364 -60 429 516 1010 463 663 382 109
192 504 311 -354 -57 417 525 1005 453 657 373 89
187 524 335 -347 -57 409 530 1000 449 642 358 70
197 529 331 -354 -72 431 545 999 439 637 353 70
197 524 326 -362 -65 431 554 994 429 623 338 60
197 509 312 -359 -62 427 559 989 424 608 319 40
167 504 336 -352 -55 412 559 973 410 608 319 50
148 456 307 -335 -82 422 569 973 405 588 309 37
158 446 287 -301 -77 383 579 968 395 584 299 28
153 446 292 -302 -62 368 589 968 390 569 285 23
153 465 312 -299 -67 371 598 968 381 563 280 13
158 471 312 -309 -77 391 598 958 372 558 275 13
148 461 312 -314 -74 393 594 948 357 543 256 -6
143 457 312 -304 -79 388 594 943 357 524 246 -21
158 461 302 -299 -82 386 589 928 337 529 252 -9
128 427 297 -309 -69 384 584 918 332 509 232 -29
119 413 292 -277 -82 364 589 918 323 500 227 -34
119 413 292 -265 -84 354 588 913 313 499 227 -29
109 398 287 -265 -84 355 588 917 313 489 217 -43
119 408 288 -253 -86 346 583 901 298 484 208 -48
138 413 274 -262 -82 350 583 891 289 463 198 -57
124 413 288 -275 -65 346 573 891 293 459 188 -62
124 408 284 -267 -79 353 568 882 284 459 193 -57
119 393 274 -265 -77 348 562 872 269 449 183 -62
104 380 274 -255 -74 336 562 877 274 439 174 -72
109 375 264 -241 -82 328 552 871 264 439 183 -62
104 370 264 -241 -74 321 552 866 254 429 169 -77
114 380 264 -236 -77 319 552 866 254 424 165 -80
124 380 254 -245 -72 324 548 856 245 424 165 -80
114 380 264 -250 -62 319 543 850 245 418 155 -89
114 389 274 -245 -72 324 538 849 245 409 155 -89
109 356 245 -250 -77 333 528 840 230 414 155 -89
99 346 245 -232 -67 303 528 840 230 399 145 -89
94 351 254 -222 -71 298 532 849 240 399 145 -89
104 337 230 -222 -79 305 532 840 230 409 151 -83
104 351 245 -220 -62 286 532 835 225 394 141 -93
104 361 254 -227 -69 300 527 834 220 393 137 -93
119 361 240 -232 -74 310 517 829 215 388 137 -108
128 356 225 -239 -59 303 512 829 215 383 127 -103
109 356 245 -242 -47 293 512 824 220 387 137 -98
104 341 235 -232 -67 303 508 828 225 387 141 -98
89 337 245 -222 -64 290 508 823 215 392 141 -91
89 341 249 -212 -76 293 512 822 206 382 132 -91
104 327 221 -215 -79 298 508 817 206 377 127 -111
109 341 231 -215 -57 276 508 817 206 377 127 -106
109 351 241 -224 -59 288 503 812 196 377 122 -111
109 351 241 -229 -64 298 508 817 210 368 117 -116
104 337 231 -229 -64 298 503 811 206 382 137 -101
99 337 236 -220 -62 286 503 806 201 377 132 -100
99 332 231 -217 -67 288 507 811 206 367 127 -100
99 327 226 -215 -64 283 502 806 196 372 137 -95
89 337 247 -212 -62 278 502 805 191 367 127 -100
94 342 247 -212 -76 293 502 805 191 357 122 -105
119 347 227 -217 -74 295 502 799 191 357 117 -110
119 347 227 -232 -52 289 497 799 196 362 122 -115
109 347 237 -232 -52 289 501 799 196 361 123 -108
94 342 247 -227 -62 294 496 795 196 366 133 -93
99 333 232 -217 -74 296 496 799 203 361 128 -98
94 328 232 -215 -64 284 501 798 198 370 138 -88
94 338 242 -210 -67 282 491 789 188 365 133 -88
94 352 256 -215 -71 291 501 798 198 355 123 -103
109 367 256 -222 -79 306 496 789 188 365 133 -93
124 372 247 -237 -71 314 491 783 188 360 123 -102
119 382 261 -246 -59 312 496 788 198 355 118 -107
109 357 247 -249 -69 324 481 772 183 370 133 -87
104 338 232 -232 -67 305 480 772 188 355 123 -97
89 329 237 -220 -62 288 490 782 193 360 128 -92
89 339 247 -208 -71 285 490 782 188 370 138 -82
109 343 233 -213 -76 295 495 787 193 364 133 -92
109 373 262 -225 -59 290 495 786 188 369 143 -80
119 363 243 -240 -74 319 485 771 183 364 139 -85
124 373 248 -240 -59 305 480 766 178 359 134 -95
124 383 257 -247 -59 312 480 771 188 359 139 -90
114 384 267 -252 -64 322 480 770 183 364 139 -80
94 349 252 -247 -74 327 475 770 188 363 148 -75
94 349 252 -221 -76 302 475 764 178 368 143 -75
99 359 257 -221 -76 303 480 769 183 363 144 -79
109 359 248 -228 -76 311 480 774 188 363 140 -94
114 379 262 -233 -67 306 485 774 188 371 154 -70
133 379 243 -246 -71 323 480 774 188 371 149 -79
128 379 248 -256 -52 313 466 768 188 367 144 -79
114 384 267 -253 -57 315 469 763 188 367 149 -74
114 369 252 -248 -74 328 474 773 198 371 154 -74
109 359 248 -241 -67 313 465 768 188 381 164 -58
109 364 252 -234 -67 306 469 767 188 371 154 -72
124 374 248 -236 -69 311 479 772 193 371 154 -72
128 374 243 -248 -59 313 469 766 188 376 164 -63
133 393 257 -251 -54 311 464 771 188 375 154 -72
133 403 267 -263 -59 328 468 776 203 375 149 -77
128 384 252 -268 -64 337 464 771 198 390 169 -62
114 359 243 -256 -59 320 459 771 193 380 164 -67
109 364 252 -236 -63 303 468 780 208 380 164 -67
109 359 249 -236 -70 311 473 785 208 395 179 -52
119 365 244 -234 -68 306 473 785 203 395 174 -57
124 375 249 -241 -60 306 468 789 208 389 174 -67
143 404 258 -248 -60 313 468 784 208 389 169 -62
138 404 263 -273 -55 332 473 788 212 394 170 -69
133 389 253 -270 -60 335 463 783 212 398 175 -60
124 375 249 -261 -58 324 463 787 217 398 180 -55
119 365 244 -248 -60 314 472 797 222 398 180 -60
109 370 259 -241 -60 307 472 797 217 407 184 -50
109 365 254 -239 -72 316 472 802 222 407 189 -55
129 375 245 -236 -70 312 477 801 222 407 184 -60
144 389 245 -252 -55 312 472 796 217 407 184 -49
134 389 254 -266 -48 319 467 801 223 403 180 -59
120 389 269 -262 -58 324 467 806 233 407 180 -59
120 380 259 -254 -72 332 467 800 228 417 189 -49
115 361 245 -249 -68 322 467 810 238 406 180 -49
120 366 245 -237 -63 305 472 814 238 416 189 -54
120 376 254 -242 -60 308 472 814 238 421 189 -54
125 376 250 -247 -65 317 472 819 243 416 190 -47
139 386 245 -249 -60 315 472 814 233 421 195 -52
149 400 250 -262 -50 317 477 819 243 411 185 -62
139 395 254 -274 -48 327 466 819 243 415 181 -62
134 406 269 -266 -55 327 462 813 238 415 195 -52
120 372 250 -269 -65 339 462 813 238 415 190 -57
110 352 241 -245 -63 313 457 813 238 414 190 -57
115 357 241 -230 -63 298 476 826 248 409 191 -51
115 362 246 -235 -60 300 481 831 248 424 196 -51
115 367 251 -237 -63 305 475 825 238 424 196 -51
139 382 241 -240 -65 311 475 825 243 414 191 -61
139 382 241 -259 -48 314 480 830 248 414 186 -65
134 387 251 -259 -48 314 470 820 238 424 191 -56
125 387 260 -259 -55 321 475 830 248 414 191 -56
120 367 246 -254 -65 326 475 835 253 424 196 -49
115 362 246 -242 -60 309 470 824 243 424 191 -54
120 362 241 -237 -63 306 475 829 243 413 186 -63
129 362 231 -240 -58 304 485 834 248 413 186 -54
134 372 236 -245 -48 299 475 823 238 413 186 -63
139 377 236 -252 -48 306 479 833 243 408 177 -68
144 372 226 -257 -46 309 479 832 248 413 186 -63
120 372 251 -257 -38 301 474 827 243 418 196 -48
110 367 255 -245 -63 314 474 832 248 412 191 -58
110 357 246 -237 -70 314 474 832 248 422 196 -53
105 352 246 -232 -65 304 479 832 248 417 186 -58
129 363 231 -227 -68 301 489 837 243 416 182 -62
129 373 241 -245 -48 299 484 831 238 411 182 -58
125 392 265 -249 -53 309 479 831 238 406 177 -67
134 383 246 -258 -68 331 484 836 248 406 183 -60
125 353 226 -258 -53 316 474 825 238 416 187 -56
120 348 227 -238 -48 292 474 825 238 401 178 -65
110 353 242 -233 -50 289 489 834 248 401 178 -65
110 348 237 -231 -63 300 494 839 243 411 183 -56
125 344 217 -228 -60 295 494 834 238 406 178 -60
125 358 232 -233 -43 283 489 834 238 401 173 -70
134 373 237 -241 -50 297 493 839 243 405 178 -64
134 378 242 -253 -48 307 493 839 243 405 178 -69
120 373 252 -255 -50 312 483 828 243 410 183 -64
110 344 232 -246 -63 315 483 828 233 405 178 -64
111 345 233 -226 -59 290 493 838 248 400 173 -69
106 335 228 -227 -59 291 493 838 239 415 187 -59
106 325 219 -219 -60 284 492 837 239 405 178 -63
86 306 219 -214 -55 274 487 832 240 404 179 -63
96 320 224 -195 -65 264 492 842 244 404 174 -62
106 325 219 -207 -62 274 492 832 235 414 189 -52
96 335 238 -214 -55 274 492 836 235 399 174 -67
96 325 228 -214 -70 288 492 831 230 399 174 -62
116 335 219 -209 -65 279 487 825 230 394 174 -67
101 335 233 -224 -50 279 492 835 240 394 164 -86
86 335 248 -217 -65 286 482 830 240 403 184 -56
106 340 233 -209 -79 293 482 825 235 403 174 -66
86 315 228 -222 -62 288 482 815 225 403 174 -71
77 296 219 -200 -70 274 477 825 235 397 174 -66
91 297 204 -185 -70 259 497 839 235 397 164 -75
96 302 204 -192 -55 252 492 829 225 397 169 -75
111 326 214 -197 -53 254 497 829 230 388 154 -85
106 326 219 -217 -50 271 497 833 235 388 155 -88
91 321 228 -214 -55 274 486 833 244 402 165 -83
96 321 224 -205 -67 276 486 837 244 407 175 -69
77 302 224 -207 -62 274 496 832 235 407 175 -69
81 298 214 -187 -72 264 486 822 215 392 165 -73
91 298 204 -187 -65 257 496 827 220 378 146 -83
101 317 214 -192 -55 253 496 832 230 377 151 -88
111 332 219 -207 -55 267 490 827 225 387 161 -77
106 342 234 -219 -53 277 500 836 235 382 156 -82
106 352 244 -222 -62 289 500 836 235 391 166 -72
96 352 254 -227 -67 299 500 831 230 391 166 -72
77 342 264 -222 -77 304 504 835 235 382 161 -72
72 342 268 -207 -92 304 514 840 244 390 166 -68
86 347 259 -205 -97 306 514 834 235 395 171 -68
81 347 264 -214 -84 305 519 834 230 386 156 -80
101 357 254 -212 -89 307 519 834 225 375 147 -90
116 361 245 -227 -75 307 524 834 230 375 147 -90
111 376 265 -236 -62 305 518 844 240 380 156 -80
111 376 265 -241 -75 322 513 839 240 389 166 -75
106 376 269 -241 -75 322 503 833 240 389 166 -75
91 381 289 -240 -79 325 503 838 240 394 166 -75
96 386 289 -235 -97 337 503 838 235 394 171 -69
96 386 289 -240 -94 339 513 842 235 394 171 -69
111 400 289 -240 -94 339 503 837 230 399 181 -65
135 410 274 -254 -87 347 489 831 230 389 171 -65
125 416 289 -271 -67 344 479 831 240 388 171 -69
111 406 294 -269 -79 354 469 826 235 398 181 -60
116 382 265 -257 -89 351 469 826 235 393 171 -65
106 372 265 -247 -72 326 469 831 240 398 177 -53
116 387 269 -237 -77 321 469 831 235 408 187 -48
125 397 269 -249 -75 330 469 830 235 403 182 -53
135 421 284 -260 -70 335 464 830 235 402 182 -58
145 436 290 -277 -72 355 459 835 241 402 182 -58
140 421 280 -290 -70 365 454 840 250 407 187 -53
140 406 266 -280 -67 352 449 834 250 417 196 -48
135 387 251 -272 -60 338 434 813 231 416 196 -47
116 362 246 -260 -55 321 434 808 231 396 187 -52
106 367 261 -238 -62 306 429 803 221 396 182 -57
101 387 285 -236 -75 316 434 803 216 386 172 -62
130 393 261 -243 -89 338 438 818 231 386 172 -62
160 422 261 -260 -62 328 428 808 226 401 187 -52
164 422 256 -290 -48 343 414 807 231 401 187 -52
160 402 241 -292 -43 340 409 807 231 406 197 -45
150 398 246 -280 -39 323 414 802 231 411 202 -30
150 398 246 -272 -46 323 423 817 241 405 193 -40
150 383 231 -272 -46 323 443 840 260 410 197 -35
135 379 241 -265 -39 308 448 844 260 434 212 -25
135 384 246 -255 -51 311 457 854 270 429 207 -35
140 394 251 -258 -54 316 453 849 260 439 212 -30
164 389 222 -265 -54 323 442 839 255 434 213 -34
160 394 231 -275 -27 307 437 835 255 424 203 -44
150 360 207 -275 -34 314 442 839 260 419 198 -44
135 335 197 -253 -27 285 437 824 245 428 203 -39
121 330 207 -233 -29 268 447 834 245 414 194 -49
116 325 207 -224 -41 270 447 824 241 413 194 -49
116 340 222 -220 -44 268 447 814 231 408 189 -61
101 345 242 -227 -51 283 452 823 245 403 179 -66
86 330 242 -222 -68 295 442 818 236 418 194 -57
96 335 237 -208 -76 289 456 822 241 408 179 -76
96 335 237 -215 -68 289 466 822 226 403 174 -76
86 291 203 -215 -68 289 461 812 211 383 159 -86
86 272 184 -188 -56 249 471 832 231 369 150 -96
77 281 203 -178 -46 230 481 832 231 388 164 -85
86 291 203 -178 -61 245 481 826 226 388 159 -90
96 281 185 -188 -56 249 476 826 221 382 150 -95
106 286 180 -188 -41 235 475 821 216 378 145 -109
96 292 194 -195 -34 235 475 821 221 373 145 -109
96 287 189 -193 -46 245 470 820 216 373 145 -99
106 287 180 -190 -44 240 460 810 211 373 150 -99
81 263 180 -195 -34 235 460 804 211 368 141 -107
77 253 175 -171 -46 223 470 814 216 367 141 -102
86 258 170 -164 -46 215 469 809 206 377 151 -93
86 263 175 -171 -39 216 469 809 206 367 141 -107
96 268 170 -173 -41 221 474 809 206 361 141 -107
111 282 170 -181 -34 221 469 808 201 366 141 -107
96 282 185 -195 -27 229 474 813 211 356 131 -117
81 287 204 -188 -41 236 474 813 216 361 136 -106
86 263 175 -183 -59 248 474 813 211 371 146 -101
77 248 170 -173 -41 221 474 812 216 366 136 -111
77 258 180 -161 -44 211 479 817 213 371 146 -101
77 249 170 -166 -49 221 484 811 208 371 141 -111
81 264 181 -161 -44 211 478 806 208 366 131 -121
96 279 181 -171 -46 224 483 811 208 371 136 -116
91 269 176 -186 -39 231 488 816 213 365 132 -114
86 269 181 -178 -39 224 473 806 208 370 137 -114
77 269 190 -176 -44 226 488 810 213 365 132 -114
67 264 195 -171 -54 231 488 815 218 375 137 -109
77 250 171 -164 -61 231 483 810 208 375 137 -109
72 241 166 -161 -44 211 488 815 208 375 132 -114
81 241 156 -154 -44 204 488 814 208 369 127 -119
86 265 176 -160 -34 199 488 814 208 369 128 -118
96 260 161 -174 -41 221 488 813 208 374 128 -128
91 275 181 -177 -29 211 493 818 218 369 128 -123
86 260 171 -182 -41 229 493 818 213 377 138 -113
77 241 161 -172 -39 217 488 813 213 373 133 -118
57 241 181 -157 -39 203 488 818 213 368 128 -118
67 241 171 -148 -59 212 493 817 213 373 133 -118
81 265 181 -152 -49 208 496 817 213 373 133 -116
91 275 181 -172 -46 225 492 817 213 368 128 -121
96 275 176 -182 -41 230 487 807 203 368 128 -121
96 275 176 -184 -37 227 487 811 213 358 114 -135
91 260 166 -184 -37 227 487 811 213 368 128 -126
86 255 166 -175 -36 216 482 810 213 372 133 -121
77 245 166 -171 -39 213 495 820 218 367 128 -121
62 245 181 -161 -43 209 491 815 213 376 138 -110
77 255 177 -153 -58 216 491 815 208 372 128 -115
91 255 162 -166 -48 218 495 820 213 367 123 -125
96 265 167 -173 -34 211 491 814 208 372 128 -125
96 276 177 -180 -34 218 491 809 208 367 119 -130
91 266 172 -185 -39 228 495 814 213 366 123 -125
86 251 162 -178 -39 221 486 809 213 375 133 -120
77 242 162 -168 -36 209 495 813 218 371 129 -123
77 246 167 -158 -41 204 500 822 218 374 134 -118
77 251 173 -161 -43 209 499 817 208 379 139 -113
72 261 188 -163 -46 213 494 817 208 370 124 -132
86 261 173 -166 -56 226 499 817 213 374 129 -123
106 271 163 -173 -41 219 494 817 208 379 129 -118
101 276 173 -188 -26 219 494 812 213 370 120 -132
91 261 168 -188 -34 227 494 811 218 374 129 -122
77 237 158 -175 -36 217 490 811 213 379 129 -122
67 242 173 -156 -39 200 494 816 218 374 129 -122
77 238 158 -153 -51 210 504 820 213 378 139 -112
77 252 173 -156 -39 200 499 815 208 378 134 -122
86 277 188 -163 -46 214 499 815 208 373 129 -127
97 296 197 -180 -48 234 490 799 199 373 125 -125
87 291 202 -196 -48 249 490 789 194 364 121 -129
63 306 241 -189 -56 249 490 779 190 364 116 -134
58 316 256 -184 -87 275 499 770 180 369 125 -120
68 331 261 -186 -97 288 514 765 180 363 125 -120
78 370 291 -198 -95 297 508 750 175 372 135 -115
87 395 306 -223 -104 332 489 739 185 382 145 -110
102 439 335 -240 -107 351 454 730 209 415 185 -70
126 458 330 -269 -114 388 445 735 229 464 234 -36
136 468 330 -291 -100 395 449 768 278 493 258 -16
156 512 355 -301 -95 400 445 826 346 542 302 7
185 488 301 -333 -97 434 434 869 414 615 361 51
200 429 228 -335 -56 395 405 923 507 679 409 80
239 356 117 -313 -12 329 400 1006 619 776 478 129
287 248 -39 -296 62 237 419 1152 766 859 517 146
312 122 -189 -268 163 104 444 1338 951 947 531 126
346 68 -276 -217 251 -32 453 1450 1044 1064 570 122
370 24 -345 -207 312 -103 453 1522 1102 1093 551 87
351 -29 -380 -197 358 -159 434 1537 1107 1102 527 68
326 -73 -400 -161 366 -204 375 1395 961 1078 502 58
312 -131 -444 -126 363 -236 322 1170 766 941 400 0
326 -180 -507 -90 378 -287 252 935 575 775 302 -47
322 -224 -546 -73 417 -343 194 759 419 634 214 -91
322 -253 -575 -48 434 -384 150 661 317 506 136 -145
287 -283 -570 -34 448 -413 135 583 214 433 102 -150
258 -330 -590 -2 429 -426 135 471 92 340 39 -189
224 -355 -580 35 423 -461 150 339 -43 232 -24 -233
165 -369 -536 64 401 -468 169 188 -200 124 -87 -272
131 -360 -492 101 350 -454 208 60 -351 -2 -169 -319
92 -384 -477 113 311 -427 335 40 -429 -114 -243 -372
53 -389 -443 145 284 -432 394 -17 -527 -192 -301 -421
19 -379 -399 167 247 -417 452 -82 -610 -280 -369 -470
0 -379 -379 179 208 -390 550 -82 -649 -353 -423 -509
-34 -355 -319 189 189 -380 643 -73 -678 -402 -467 -548
-68 -321 -251 193 141 -339 721 -48 -673 -441 -511 -587
-107 -286 -178 193 90 -288 799 -9 -653 -450 -526 -606
-146 -272 -125 195 33 -233 906 38 -629 -442 -535 -620
-161 -243 -80 207 -11 -199 988 68 -605 -432 -550 -645
-165 -203 -37 200 -41 -162 1013 77 -595 -412 -535 -635
-185 -139 45 183 -65 -121 949 72 -585 -393 -521 -625
-190 -95 94 162 -115 -46 876 67 -561 -373 -501 -610
-190 -41 147 142 -142 0 852 76 -536 -334 -462 -576
-185 11 197 116 -169 52 842 90 -512 -301 -432 -555
-185 65 250 86 -191 104 777 90 -488 -272 -407 -525
-195 89 285 60 -218 158 699 89 -468 -238 -368 -491
-195 99 294 52 -240 187 646 118 -429 -213 -344 -472
-170 85 255 47 -245 197 611 153 -385 -166 -300 -438
-150 105 255 42 -213 170 553 182 -351 -117 -256 -403
-121 129 250 22 -203 180 445 211 -312 -83 -232 -389
-72 149 221 -3 -185 191 348 226 -285 -39 -192 -349
-38 164 202 -37 -146 186 289 249 -256 -14 -172 -339
-8 178 187 -61 -119 183 236 293 -207 9 -153 -319
1 193 191 -83 -97 183 187 317 -183 58 -109 -280
1 178 176 -95 -93 193 161 347 -154 82 -84 -261
20 188 167 -88 -86 178 186 409 -100 107 -65 -246
30 217 187 -103 -71 178 225 462 -61 150 -31 -217
40 242 201 -122 -76 203 264 516 -22 179 -6 -205
83 281 196 -139 -79 222 313 579 21 213 12 -186
98 315 216 -181 -54 240 366 638 70 252 37 -171
108 325 216 -205 -57 267 415 696 119 286 61 -156
103 320 216 -215 -52 272 440 735 153 335 105 -113
93 310 216 -210 -54 270 449 749 167 360 120 -108
103 310 206 -200 -59 265 464 763 177 368 125 -108
88 300 211 -205 -49 260 464 768 182 383 134 -92
88 305 216 -193 -59 257 464 773 182 388 139 -92
103 315 211 -195 -62 262 469 782 192 387 134 -97
113 316 201 -208 -52 266 459 781 182 397 144 -87
123 321 196 -213 -42 261 459 781 187 392 134 -102
123 330 206 -220 -35 261 464 791 202 392 134 -97
113 326 211 -225 -40 271 458 791 197 406 155 -80
98 316 216 -217 -47 271 458 796 202 401 150 -85
118 306 187 -205 -57 268 458 800 206 406 155 -75
98 296 196 -211 -32 249 458 799 202 421 165 -70
103 316 211 -196 -47 249 463 804 206 411 155 -80
127 321 192 -209 -52 266 463 809 211 416 155 -80
123 335 211 -223 -30 258 457 804 202 420 160 -75
118 345 226 -228 -42 276 457 808 211 410 150 -89
132 335 201 -231 -52 288 457 803 211 420 160 -79
123 321 197 -233 -32 271 452 793 206 420 160 -79
98 316 217 -221 -35 261 462 807 216 415 155 -84
108 322 212 -206 -57 269 457 807 211 430 169 -69
123 322 197 -214 -49 269 457 807 211 429 165 -74
123 327 202 -221 -35 262 457 807 211 424 160 -74
127 336 207 -223 -37 267 457 806 206 424 161 -72
127 336 207 -231 -37 274 452 806 211 418 156 -82
127 346 217 -231 -37 274 451 806 216 418 156 -82
118 336 218 -236 -42 284 446 801 211 428 166 -67
123 323 198 -226 -47 279 446 800 211 423 166 -72
118 323 203 -221 -35 262 446 800 211 423 170 -72
118 323 203 -218 -40 264 446 804 211 428 166 -67
118 342 223 -218 -40 264 451 809 216 423 167 -71
118 357 238 -228 -49 284 446 804 206 433 171 -66
142 352 208 -236 -57 299 437 794 202 423 167 -71
142 342 198 -245 -30 281 441 794 202 418 157 -76
113 328 213 -240 -25 272 441 798 211 422 162 -76
118 318 198 -218 -49 272 441 803 216 432 176 -62
113 318 203 -216 -39 259 446 808 217 432 176 -57
108 342 233 -214 -44 262 446 803 212 436 186 -50
118 352 233 -223 -61 289 446 797 207 432 176 -64
132 352 218 -233 -56 294 437 792 203 427 171 -74
132 362 228 -240 -42 286 432 787 198 426 171 -69
142 352 208 -245 -46 296 431 796 212 421 171 -69
137 362 224 -245 -32 282 421 791 207 440 181 -60
123 347 224 -248 -42 295 426 787 203 430 181 -55
108 323 214 -233 -49 287 426 787 207 430 181 -54
118 342 224 -214 -51 270 426 786 207 434 181 -49
123 367 243 -228 -51 285 436 795 212 434 181 -54
137 352 214 -244 -59 307 425 795 212 439 191 -49
147 363 214 -244 -37 285 410 776 193 439 186 -54
147 368 219 -254 -32 290 415 785 207 420 167 -68
147 358 209 -256 -34 296 420 789 212 439 186 -49
137 353 214 -251 -29 286 410 779 207 444 192 -47
118 363 243 -244 -37 286 415 788 217 439 192 -42
127 358 229 -239 -61 305 415 788 212 453 202 -27
132 353 219 -241 -49 296 410 779 198 448 197 -27
137 368 229 -241 -42 288 410 784 203 438 187 -52
147 377 229 -251 -44 301 410 783 203 438 192 -42
152 382 229 -261 -39 305 404 778 203 438 192 -42
152 377 224 -267 -37 308 404 783 212 433 192 -41
137 387 248 -264 -34 303 399 783 217 442 202 -26
123 377 253 -262 -54 320 399 782 222 452 207 -26
127 363 234 -250 -64 318 399 782 217 457 216 -21
137 378 239 -245 -51 301 399 776 212 457 216 -21
142 383 239 -257 -49 310 399 781 217 451 211 -26
147 388 239 -262 -46 314 395 781 212 451 207 -26
152 408 253 -267 -44 316 395 776 217 451 208 -19
152 422 269 -279 -49 333 395 785 227 451 217 -24
162 413 249 -286 -56 348 390 780 222 466 227 -10
157 399 240 -286 -42 333 380 770 222 461 222 -10
142 399 254 -277 -39 321 380 775 227 461 227 -10
147 399 249 -269 -54 328 385 784 232 471 237 0
157 409 249 -272 -49 326 385 779 227 475 243 1
166 418 249 -281 -44 331 385 783 232 470 238 1
176 428 249 -291 -39 336 379 778 232 474 243 6
166 457 289 -301 -34 341 374 782 242 474 243 6
171 453 280 -311 -59 375 374 787 251 479 253 16
176 448 270 -311 -51 367 364 782 242 489 262 25
162 443 280 -311 -44 360 369 792 256 479 253 25
157 423 265 -301 -56 363 364 791 251 499 277 36
166 433 265 -289 -51 345 358 786 247 498 272 31
176 457 280 -299 -46 350 363 801 266 493 267 27
182 477 294 -316 -49 370 358 796 266 508 287 46
202 477 275 -329 -54 387 354 795 266 511 287 41
206 487 280 -339 -34 377 354 800 278 511 287 41
202 482 280 -346 -34 384 349 804 288 526 296 51
197 482 284 -341 -37 382 344 809 292 531 301 57
187 482 294 -339 -42 385 349 819 302 536 311 67
187 487 299 -334 -51 390 344 819 297 555 321 76
211 492 280 -336 -54 395 349 823 302 550 316 62
216 512 294 -351 -32 388 348 833 317 555 326 76
226 532 304 -363 -37 405 343 842 322 570 335 81
226 532 305 -378 -37 420 348 852 331 575 335 86
211 537 324 -378 -37 420 348 852 341 579 341 93
216 527 310 -373 -54 432 343 856 341 589 351 103
216 522 305 -370 -45 421 353 865 356 589 351 98
206 532 324 -368 -43 416 357 874 361 608 366 117
216 527 310 -368 -57 430 362 879 366 603 366 108
231 532 300 -370 -45 421 367 894 375 613 366 108
231 556 324 -380 -33 418 362 894 375 617 376 117
250 561 310 -392 -45 443 372 908 395 617 371 113
246 551 305 -404 -28 438 372 908 405 631 385 123
236 546 310 -397 -28 430 377 917 405 635 385 128
216 537 320 -390 -35 430 387 932 424 635 390 128
221 528 305 -375 -50 430 392 941 429 650 400 133
216 533 315 -373 -40 418 401 940 429 655 405 138
226 557 329 -373 -47 426 410 955 434 650 395 128
246 567 320 -390 -50 445 415 959 439 655 401 130
250 581 329 -404 -35 445 410 954 439 665 411 140
255 591 334 -414 -38 458 420 969 453 660 401 130
246 586 339 -422 -38 466 420 974 458 679 416 140
241 578 334 -414 -45 466 425 974 458 674 416 135
231 558 324 -407 -45 458 429 983 463 678 411 140
221 548 324 -392 -45 444 438 982 458 678 416 140
221 543 320 -382 -50 439 458 992 468 668 407 126
246 558 310 -380 -47 434 463 1007 478 678 407 126
246 578 330 -400 -30 436 468 1006 473 683 412 126
236 568 330 -409 -40 456 477 1006 473 678 397 116
231 548 316 -401 -45 451 482 1000 473 672 402 116
221 548 325 -388 -40 434 492 1005 473 667 392 107
202 529 325 -383 -50 439 507 1010 473 663 382 107
197 514 316 -364 -60 429 516 1010 463 663 382 109
192 504 311 -354 -57 417 525 1005 453 657 373 89
187 524 335 -347 -57 409 530 1000 449 642 358 70
197 529 331 -354 -72 431 545 999 439 637 353 70
197 524 326 -362 -65 431 554 994 429 623 338 60
197 509 312 -359 -62 427 559 989 424 608 319 40
167 504 336 -352 -55 412 559 973 410 608 319 50
148 456 307 -335 -82 422 569 973 405 588 309 37
158 446 287 -301 -77 383 579 968 395 584 299 28
153 446 292 -302 -62 368 589 968 390 569 285 23
153 465 312 -299 -67 371 598 968 381 563 280 13
158 471 312 -309 -77 391 598 958 372 558 275 13
148 461 312 -314 -74 393 594 948 357 543 256 -6
143 457 312 -304 -79 388 594 943 357 524 246 -21
158 461 302 -299 -82 386 589 928 337 529 252 -9
128 427 297 -309 -69 384 584 918 332 509 232 -29
119 413 292 -277 -82 364 589 918 323 500 227 -34
119 413 292 -265 -84 354 588 913 313 499 227 -29
109 398 287 -265 -84 355 588 917 313 489 217 -43
119 408 288 -253 -86 346 583 901 298 484 208 -48
138 413 274 -262 -82 350 583 891 289 463 198 -57
124 413 288 -275 -65 346 573 891 293 459 188 -62
124 408 284 -267 -79 353 568 882 284 459 193 -57
119 393 274 -265 -77 348 562 872 269 449 183 -62
104 380 274 -255 -74 336 562 877 274 439 174 -72
109 375 264 -241 -82 328 552 871 264 439 183 -62
104 370 264 -241 -74 321 552 866 254 429 169 -77
114 380 264 -236 -77 319 552 866 254 424 165 -80
124 380 254 -245 -72 324 548 856 245 424 165 -80
114 380 264 -250 -62 319 543 850 245 418 155 -89
114 389 274 -245 -72 324 538 849 245 409 155 -89
109 356 245 -250 -77 333 528 840 230 414 155 -89
99 346 245 -232 -67 303 528 840 230 399 145 -89
94 351 254 -222 -71 298 532 849 240 399 145 -89
104 337 230 -222 -79 305 532 840 230 409 151 -83
104 351 245 -220 -62 286 532 835 225 394 141 -93
104 361 254 -227 -69 300 527 834 220 393 137 -93
119 361 240 -232 -74 310 517 829 215 388 137 -108
128 356 225 -239 -59 303 512 829 215 383 127 -103
109 356 245 -242 -47 293 512 824 220 387 137 -98
104 341 235 -232 -67 303 508 828 225 387 141 -98
89 337 245 -222 -64 290 508 823 215 392 141 -91
89 341 249 -212 -76 293 512 822 206 382 132 -91
104 327 221 -215 -79 298 508 817 206 377 127 -111
109 341 231 -215 -57 276 508 817 206 377 127 -106
109 351 241 -224 -59 288 503 812 196 377 122 -111
109 351 241 -229 -64 298 508 817 210 368 117 -116
104 337 231 -229 -64 298 503 811 206 382 137 -101
99 337 236 -220 -62 286 503 806 201 377 132 -100
99 332 231 -217 -67 288 507 811 206 367 127 -100
99 327 226 -215 -64 283 502 806 196 372 137 -95
89 337 247 -212 -62 278 502 805 191 367 127 -100
94 342 247 -212 -76 293 502 805 191 357 122 -105
119 347 227 -217 -74 295 502 799 191 357 117 -110
119 347 227 -232 -52 289 497 799 196 362 122 -115
109 347 237 -232 -52 289 501 799 196 361 123 -108
94 342 247 -227 -62 294 496 795 196 366 133 -93
99 333 232 -217 -74 296 496 799 203 361 128 -98
94 328 232 -215 -64 284 501 798 198 370 138 -88
94 338 242 -210 -67 282 491 789 188 365 133 -88
94 352 256 -215 -71 291 501 798 198 355 123 -103
109 367 256 -222 -79 306 496 789 188 365 133 -93
124 372 247 -237 -71 314 491 783 188 360 123 -102
119 382 261 -246 -59 312 496 788 198 355 118 -107
109 357 247 -249 -69 324 481 772 183 370 133 -87
104 338 232 -232 -67 305 480 772 188 355 123 -97
89 329 237 -220 -62 288 490 782 193 360 128 -92
89 339 247 -208 -71 285 490 782 188 370 138 -82
109 343 233 -213 -76 295 495 787 193 364 133 -92
109 373 262 -225 -59 290 495 786 188 369 143 -80
119 363 243 -240 -74 319 485 771 183 364 139 -85
124 373 248 -240 -59 305 480 766 178 359 134 -95
124 383 257 -247 -59 312 480 771 188 359 139 -90
114 384 267 -252 -64 322 480 770 183 364 139 -80
94 349 252 -247 -74 327 475 770 188 363 148 -75
94 349 252 -221 -76 302 475 764 178 368 143 -75
99 359 257 -221 -76 303 480 769 183 363 144 -79
109 359 248 -228 -76 311 480 774 188 363 140 -94
114 379 262 -233 -67 306 485 774 188 371 154 -70
133 379 243 -246 -71 323 480 774 188 371 149 -79
128 379 248 -256 -52 313 466 768 188 367 144 -79
114 384 267 -253 -57 315 469 763 188 367 149 -74
114 369 252 -248 -74 328 474 773 198 371 154 -74
109 359 248 -241 -67 313 465 768 188 381 164 -58
109 364 252 -234 -67 306 469 767 188 371 154 -72
124 374 248 -236 -69 311 479 772 193 371 154 -72
128 374 243 -248 -59 313 469 766 188 376 164 -63
133 393 257 -251 -54 311 464 771 188 375 154 -72
133 403 267 -263 -59 328 468 776 203 375 149 -77
128 384 252 -268 -64 337 464 771 198 390 169 -62
114 359 243 -256 -59 320 459 771 193 380 164 -67
109 364 252 -236 -63 303 468 780 208 380 164 -67
109 359 249 -236 -70 311 473 785 208 395 179 -52
119 365 244 -234 -68 306 473 785 203 395 174 -57
124 375 249 -241 -60 306 468 789 208 389 174 -67
143 404 258 -248 -60 313 468 784 208 389 169 -62
138 404 263 -273 -55 332 473 788 212 394 170 -69
133 389 253 -270 -60 335 463 783 212 398 175 -60
124 375 249 -261 -58 324 463 787 217 398 180 -55
119 365 244 -248 -60 314 472 797 222 398 180 -60
109 370 259 -241 -60 307 472 797 217 407 184 -50
109 365 254 -239 -72 316 472 802 222 407 189 -55
129 375 245 -236 -70 312 477 801 222 407 184 -60
144 389 245 -252 -55 312 472 796 217 407 184 -49
134 389 254 -266 -48 319 467 801 223 403 180 -59
120 389 269 -262 -58 324 467 806 233 407 180 -59
120 380 259 -254 -72 332 467 800 228 417 189 -49
115 361 245 -249 -68 322 467 810 238 406 180 -49
120 366 245 -237 -63 305 472 814 238 416 189 -54
120 376 254 -242 -60 308 472 814 238 421 189 -54
125 376 250 -247 -65 317 472 819 243 416 190 -47
139 386 245 -249 -60 315 472 814 233 421 195 -52
149 400 250 -262 -50 317 477 819 243 411 185 -62
139 395 254 -274 -48 327 466 819 243 415 181 -62
134 406 269 -266 -55 327 462 813 238 415 195 -52
120 372 250 -269 -65 339 462 813 238 415 190 -57
110 352 241 -245 -63 313 457 813 238 414 190 -57
115 357 241 -230 -63 298 476 826 248 409 191 -51
115 362 246 -235 -60 300 481 831 248 424 196 -51
115 367 251 -237 -63 305 475 825 238 424 196 -51
139 382 241 -240 -65 311 475 825 243 414 191 -61
139 382 241 -259 -48 314 480 830 248 414 186 -65
134 387 251 -259 -48 314 470 820 238 424 191 -56
125 387 260 -259 -55 321 475 830 248 414 191 -56
120 367 246 -254 -65 326 475 835 253 424 196 -49
115 362 246 -242 -60 309 470 824 243 424 191 -54
120 362 241 -237 -63 306 475 829 243 413 186 -63
129 362 231 -240 -58 304 485 834 248 413 186 -54
134 372 236 -245 -48 299 475 823 238 413 186 -63
139 377 236 -252 -48 306 479 833 243 408 177 -68
144 372 226 -257 -46 309 479 832 248 413 186 -63
120 372 251 -257 -38 301 474 827 243 418 196 -48
110 367 255 -245 -63 314 474 832 248 412 191 -58
110 357 246 -237 -70 314 474 832 248 422 196 -53
105 352 246 -232 -65 304 479 832 248 417 186 -58
129 363 231 -227 -68 301 489 837 243 416 182 -62
129 373 241 -245 -48 299 484 831 238 411 182 -58
125 392 265 -249 -53 309 479 831 238 406 177 -67
134 383 246 -258 -68 331 484 836 248 406 183 -60
125 353 226 -258 -53 316 474 825 238 416 187 -56
120 348 227 -238 -48 292 474 825 238 401 178 -65
110 353 242 -233 -50 289 489 834 248 401 178 -65
110 348 237 -231 -63 300 494 839 243 411 183 -56
125 344 217 -228 -60 295 494 834 238 406 178 -60
125 358 232 -233 -43 283 489 834 238 401 173 -70
134 373 237 -241 -50 297 493 839 243 405 178 -64
134 378 242 -253 -48 307 493 839 243 405 178 -69
120 373 252 -255 -50 312 483 828 243 410 183 -64
110 344 232 -246 -63 315 483 828 233 405 178 -64
111 345 233 -226 -59 290 493 838 248 400 173 -69
106 335 228 -227 -59 291 493 838 239 415 187 -59
106 325 219 -219 -60 284 492 837 239 405 178 -63
86 306 219 -214 -55 274 487 832 240 404 179 -63
96 320 224 -195 -65 264 492 842 244 404 174 -62
106 325 219 -207 -62 274 492 832 235 414 189 -52
96 335 238 -214 -55 274 492 836 235 399 174 -67
96 325 228 -214 -70 288 492 831 230 399 174 -62
116 335 219 -209 -65 279 487 825 230 394 174 -67
101 335 233 -224 -50 279 492 835 240 394 164 -86
86 335 248 -217 -65 286 482 830 240 403 184 -56
106 340 233 -209 -79 293 482 825 235 403 174 -66
86 315 228 -222 -62 288 482 815 225 403 174 -71
77 296 219 -200 -70 274 477 825 235 397 174 -66
91 297 204 -185 -70 259 497 839 235 397 164 -75
96 302 204 -192 -55 252 492 829 225 397 169 -75
111 326 214 -197 -53 254 497 829 230 388 154 -85
106 326 219 -217 -50 271 497 833 235 388 155 -88
91 321 228 -214 -55 274 486 833 244 402 165 -83
96 321 224 -205 -67 276 486 837 244 407 175 -69
77 302 224 -207 -62 274 496 832 235 407 175 -69
81 298 214 -187 -72 264 486 822 215 392 165 -73
91 298 204 -187 -65 257 496 827 220 378 146 -83
101 317 214 -192 -55 253 496 832 230 377 151 -88
111 332 219 -207 -55 267 490 827 225 387 161 -77
106 342 234 -219 -53 277 500 836 235 382 156 -82
106 352 244 -222 -62 289 500 836 235 391 166 -72
96 352 254 -227 -67 299 500 831 230 391 166 -72
77 342 264 -222 -77 304 504 835 235 382 161 -72
72 342 268 -207 -92 304 514 840 244 390 166 -68
86 347 259 -205 -97 306 514 834 235 395 171 -68
81 347 264 -214 -84 305 519 834 230 386 156 -80
101 357 254 -212 -89 307 519 834 225 375 147 -90
116 361 245 -227 -75 307 524 834 230 375 147 -90
111 376 265 -236 -62 305 518 844 240 380 156 -80
111 376 265 -241 -75 322 513 839 240 389 166 -75
106 376 269 -241 -75 322 503 833 240 389 166 -75
91 381 289 -240 -79 325 503 838 240 394 166 -75
96 386 289 -235 -97 337 503 838 235 394 171 -69
96 386 289 -240 -94 339 513 842 235 394 171 -69
111 400 289 -240 -94 339 503 837 230 399 181 -65
135 410 274 -254 -87 347 489 831 230 389 171 -65
125 416 289 -271 -67 344 479 831 240 388 171 -69
111 406 294 -269 -79 354 469 826 235 398 181 -60
116 382 265 -257 -89 351 469 826 235 393 171 -65
106 372 265 -247 -72 326 469 831 240 398 177 -53
116 387 269 -237 -77 321 469 831 235 408 187 -48
125 397 269 -249 -75 330 469 830 235 403 182 -53
135 421 284 -260 -70 335 464 830 235 402 182 -58
145 436 290 -277 -72 355 459 835 241 402 182 -58
140 421 280 -290 -70 365 454 840 250 407 187 -53
140 406 266 -280 -67 352 449 834 250 417 196 -48
135 387 251 -272 -60 338 434 813 231 416 196 -47
116 362 246 -260 -55 321 434 808 231 396 187 -52
106 367 261 -238 -62 306 429 803 221 396 182 -57
101 387 285 -236 -75 316 434 803 216 386 172 -62
130 393 261 -243 -89 338 438 818 231 386 172 -62
160 422 261 -260 -62 328 428 808 226 401 187 -52
164 422 256 -290 -48 343 414 807 231 401 187 -52
160 402 241 -292 -43 340 409 807 231 406 197 -45
150 398 246 -280 -39 323 414 802 231 411 202 -30
150 398 246 -272 -46 323 423 817 241 405 193 -40
150 383 231 -272 -46 323 443 840 260 410 197 -35
135 379 241 -265 -39 308 448 844 260 434 212 -25
135 384 246 -255 -51 311 457 854 270 429 207 -35
140 394 251 -258 -54 316 453 849 260 439 212 -30
164 389 222 -265 -54 323 442 839 255 434 213 -34
160 394 231 -275 -27 307 437 835 255 424 203 -44
150 360 207 -275 -34 314 442 839 260 419 198 -44
135 335 197 -253 -27 285 437 824 245 428 203 -39
121 330 207 -233 -29 268 447 834 245 414 194 -49
116 325 207 -224 -41 270 447 824 241 413 194 -49
116 340 222 -220 -44 268 447 814 231 408 189 -61
101 345 242 -227 -51 283 452 823 245 403 179 -66
86 330 242 -222 -68 295 442 818 236 418 194 -57
96 335 237 -208 -76 289 456 822 241 408 179 -76
96 335 237 -215 -68 289 466 822 226 403 174 -76
86 291 203 -215 -68 289 461 812 211 383 159 -86
86 272 184 -188 -56 249 471 832 231 369 150 -96
77 281 203 -178 -46 230 481 832 231 388 164 -85
86 291 203 -178 -61 245 481 826 226 388 159 -90
96 281 185 -188 -56 249 476 826 221 382 150 -95
106 286 180 -188 -41 235 475 821 216 378 145 -109
96 292 194 -195 -34 235 475 821 221 373 145 -109
96 287 189 -193 -46 245 470 820 216 373 145 -99
106 287 180 -190 -44 240 460 810 211 373 150 -99
81 263 180 -195 -34 235 460 804 211 368 141 -107
77 253 175 -171 -46 223 470 814 216 367 141 -102
86 258 170 -164 -46 215 469 809 206 377 151 -93
86 263 175 -171 -39 216 469 809 206 367 141 -107
96 268 170 -173 -41 221 474 809 206 361 141 -107
111 282 170 -181 -34 221 469 808 201 366 141 -107
96 282 185 -195 -27 229 474 813 211 356 131 -117
81 287 204 -188 -41 236 474 813 216 361 136 -106
86 263 175 -183 -59 248 474 813 211 371 146 -101
77 248 170 -173 -41 221 474 812 216 366 136 -111
77 258 180 -161 -44 211 479 817 213 371 146 -101
77 249 170 -166 -49 221 484 811 208 371 141 -111
81 264 181 -161 -44 211 478 806 208 366 131 -121
96 279 181 -171 -46 224 483 811 208 371 136 -116
91 269 176 -186 -39 231 488 816 213 365 132 -114
86 269 181 -178 -39 224 473 806 208 370 137 -114
77 269 190 -176 -44 226 488 810 213 365 132 -114
67 264 195 -171 -54 231 488 815 218 375 137 -109
77 250 171 -164 -61 231 483 810 208 375 137 -109
72 241 166 -161 -44 211 488 815 208 375 132 -114
81 241 156 -154 -44 204 488 814 208 369 127 -119
86 265 176 -160 -34 199 488 814 208 369 128 -118
96 260 161 -174 -41 221 488 813 208 374 128 -128
91 275 181 -177 -29 211 493 818 218 369 128 -123
86 260 171 -182 -41 229 493 818 213 377 138 -113
77 241 161 -172 -39 217 488 813 213 373 133 -118
57 241 181 -157 -39 203 488 818 213 368 128 -118
67 241 171 -148 -59 212 493 817 213 373 133 -118
81 265 181 -152 -49 208 496 817 213 373 133 -116
91 275 181 -172 -46 225 492 817 213 368 128 -121
96 275 176 -182 -41 230 487 807 203 368 128 -121
96 275 176 -184 -37 227 487 811 213 358 114 -135
91 260 166 -184 -37 227 487 811 213 368 128 -126
86 255 166 -175 -36 216 482 810 213 372 133 -121
77 245 166 -171 -39 213 495 820 218 367 128 -121
62 245 181 -161 -43 209 491 815 213 376 138 -110
77 255 177 -153 -58 216 491 815 208 372 128 -115
91 255 162 -166 -48 218 495 820 213 367 123 -125
96 265 167 -173 -34 211 491 814 208 372 128 -125
96 276 177 -180 -34 218 491 809 208 367 119 -130
91 266 172 -185 -39 228 495 814 213 366 123 -125
86 251 162 -178 -39 221 486 809 213 375 133 -120
77 242 162 -168 -36 209 495 813 218 371 129 -123
77 246 167 -158 -41 204 500 822 218 374 134 -118
77 251 173 -161 -43 209 499 817 208 379 139 -113
72 261 188 -163 -46 213 494 817 208 370 124 -132
86 261 173 -166 -56 226 499 817 213 374 129 -123
106 271 163 -173 -41 219 494 817 208 379 129 -118
101 276 173 -188 -26 219 494 812 213 370 120 -132
91 261 168 -188 -34 227 494 811 218 374 129 -122
77 237 158 -175 -36 217 490 811 213 379 129 -122
67 242 173 -156 -39 200 494 816 218 374 129 -122
77 238 158 -153 -51 210 504 820 213 378 139 -112
77 252 173 -156 -39 200 499 815 208 378 134 -122
86 277 188 -163 -46 214 499 815 208 373 129 -127
97 296 197 -180 -48 234 490 799 199 373 125 -125
87 291 202 -196 -48 249 490 789 194 364 121 -129
63 306 241 -189 -56 249 490 779 190 364 116 -134
58 316 256 -184 -87 275 499 770 180 369 125 -120
68 331 261 -186 -97 288 514 765 180 363 125 -120
78 370 291 -198 -95 297 508 750 175 372 135 -115
87 395 306 -223 -104 332 489 739 185 382 145 -110
102 439 335 -240 -107 351 454 730 209 415 185 -70
126 458 330 -269 -114 388 445 735 229 464 234 -36
136 468 330 -291 -100 395 449 768 278 493 258 -16
156 512 355 -301 -95 400 445 826 346 542 302 7
185 488 301 -333 -97 434 434 869 414 615 361 51
200 429 228 -335 -56 395 405 923 507 679 409 80
239 356 117 -313 -12 329 400 1006 619 776 478 129
287 248 -39 -296 62 237 419 1152 766 859 517 146
312 122 -189 -268 163 104 444 1338 951 947 531 126
346 68 -276 -217 251 -32 453 1450 1044 1064 570 122
370 24 -345 -207 312 -103 453 1522 1102 1093 551 87
351 -29 -380 -197 358 -159 434 1537 1107 1102 527 68
326 -73 -400 -161 366 -204 375 1395 961 1078 502 58
312 -131 -444 -126 363 -236 322 1170 766 941 400 0
326 -180 -507 -90 378 -287 252 935 575 775 302 -47
322 -224 -546 -73 417 -343 194 759 419 634 214 -91
322 -253 -575 -48 434 -384 150 661 317 506 136 -145
287 -283 -570 -34 448 -413 135 583 214 433 102 -150
258 -330 -590 -2 429 -426 135 471 92 340 39 -189
224 -355 -580 35 423 -461 150 339 -43 232 -24 -233
165 -369 -536 64 401 -468 169 188 -200 124 -87 -272
131 -360 -492 101 350 -454 208 60 -351 -2 -169 -319
92 -384 -477 113 311 -427 335 40 -429 -114 -243 -372
53 -389 -443 145 284 -432 394 -17 -527 -192 -301 -421
19 -379 -399 167 247 -417 452 -82 -610 -280 -369 -470
0 -379 -379 179 208 -390 550 -82 -649 -353 -423 -509
-34 -355 -319 189 189 -380 643 -73 -678 -402 -467 -548
-68 -321 -251 193 141 -339 721 -48 -673 -441 -511 -587
-107 -286 -178 193 90 -288 799 -9 -653 -450 -526 -606
-146 -272 -125 195 33 -233 906 38 -629 -442 -535 -620
-161 -243 -80 207 -11 -199 988 68 -605 -432 -550 -645
-165 -203 -37 200 -41 -162 1013 77 -595 -412 -535 -635
-185 -139 45 183 -65 -121 949 72 -585 -393 -521 -625
-190 -95 94 162 -115 -46 876 67 -561 -373 -501 -610
-190 -41 147 142 -142 0 852 76 -536 -334 -462 -576
-185 11 197 116 -169 52 842 90 -512 -301 -432 -555
-185 65 250 86 -191 104 777 90 -488 -272 -407 -525
-195 89 285 60 -218 158 699 89 -468 -238 -368 -491
-195 99 294 52 -240 187 646 118 -429 -213 -344 -472
-170 85 255 47 -245 197 611 153 -385 -166 -300 -438
-150 105 255 42 -213 170 553 182 -351 -117 -256 -403
-121 129 250 22 -203 180 445 211 -312 -83 -232 -389
-72 149 221 -3 -185 191 348 226 -285 -39 -192 -349
-38 164 202 -37 -146 186 289 249 -256 -14 -172 -339
-8 178 187 -61 -119 183 236 293 -207 9 -153 -319
1 193 191 -83 -97 183 187 317 -183 58 -109 -280
1 178 176 -95 -93 193 161 347 -154 82 -84 -261
20 188 167 -88 -86 178 186 409 -100 107 -65 -246
30 217 187 -103 -71 178 225 462 -61 150 -31 -217
40 242 201 -122 -76 203 264 516 -22 179 -6 -205
83 281 196 -139 -79 222 313 579 21 213 12 -186
98 315 216 -181 -54 240 366 638 70 252 37 -171
108 325 216 -205 -57 267 415 696 119 286 61 -156
103 320 216 -215 -52 272 440 735 153 335 105 -113
93 310 216 -210 -54 270 449 749 167 360 120 -108
103 310 206 -200 -59 265 464 763 177 368 125 -108
88 300 211 -205 -49 260 464 768 182 383 134 -92
88 305 216 -193 -59 257 464 773 182 388 139 -92
103 315 211 -195 -62 262 469 782 192 387 134 -97
113 316 201 -208 -52 266 459 781 182 397 144 -87
123 321 196 -213 -42 261 459 781 187 392 134 -102
123 330 206 -220 -35 261 464 791 202 392 134 -97
113 326 211 -225 -40 271 458 791 197 406 155 -80
98 316 216 -217 -47 271 458 796 202 401 150 -85
118 306 187 -205 -57 268 458 800 206 406 155 -75
98 296 196 -211 -32 249 458 799 202 421 165 -70
103 316 211 -196 -47 249 463 804 206 411 155 -80
127 321 192 -209 -52 266 463 809 211 416 155 -80
123 335 211 -223 -30 258 457 804 202 420 160 -75
118 345 226 -228 -42 276 457 808 211 410 150 -89
132 335 201 -231 -52 288 457 803 211 420 160 -79
123 321 197 -233 -32 271 452 793 206 420 160 -79
98 316 217 -221 -35 261 462 807 216 415 155 -84
108 322 212 -206 -57 269 457 807 211 430 169 -69
123 322 197 -214 -49 269 457 807 211 429 165 -74
123 327 202 -221 -35 262 457 807 211 424 160 -74
127 336 207 -223 -37 267 457 806 206 424 161 -72
127 336 207 -231 -37 274 452 806 211 418 156 -82
127 346 217 -231 -37 274 451 806 216 418 156 -82
118 336 218 -236 -42 284 446 801 211 428 166 -67
123 323 198 -226 -47 279 446 800 211 423 166 -72
118 323 203 -221 -35 262 446 800 211 423 170 -72
118 323 203 -218 -40 264 446 804 211 428 166 -67
118 342 223 -218 -40 264 451 809 216 423 167 -71
118 357 238 -228 -49 284 446 804 206 433 171 -66
142 352 208 -236 -57 299 437 794 202 423 167 -71
142 342 198 -245 -30 281 441 794 202 418 157 -76
113 328 213 -240 -25 272 441 798 211 422 162 -76
118 318 198 -218 -49 272 441 803 216 432 176 -62
113 318 203 -216 -39 259 446 808 217 432 176 -57
108 342 233 -214 -44 262 446 803 212 436 186 -50
118 352 233 -223 -61 289 446 797 207 432 176 -64
132 352 218 -233 -56 294 437 792 203 427 171 -74
132 362 228 -240 -42 286 432 787 198 426 171 -69
142 352 208 -245 -46 296 431 796 212 421 171 -69
137 362 224 -245 -32 282 421 791 207 440 181 -60
123 347 224 -248 -42 295 426 787 203 430 181 -55
108 323 214 -233 -49 287 426 787 207 430 181 -54
118 342 224 -214 -51 270 426 786 207 434 181 -49
123 367 243 -228 -51 285 436 795 212 434 181 -54
137 352 214 -244 -59 307 425 795 212 439 191 -49
147 363 214 -244 -37 285 410 776 193 439 186 -54
147 368 219 -254 -32 290 415 785 207 420 167 -68
147 358 209 -256 -34 296 420 789 212 439 186 -49
137 353 214 -251 -29 286 410 779 207 444 192 -47
118 363 243 -244 -37 286 415 788 217 439 192 -42
127 358 229 -239 -61 305 415 788 212 453 202 -27
132 353 219 -241 -49 296 410 779 198 448 197 -27
137 368 229 -241 -42 288 410 784 203 438 187 -52
147 377 229 -251 -44 301 410 783 203 438 192 -42
152 382 229 -261 -39 305 404 778 203 438 192 -42
152 377 224 -267 -37 308 404 783 212 433 192 -41
137 387 248 -264 -34 303 399 783 217 442 202 -26
123 377 253 -262 -54 320 399 782 222 452 207 -26
127 363 234 -250 -64 318 399 782 217 457 216 -21
137 378 239 -245 -51 301 399 776 212 457 216 -21
142 383 239 -257 -49 310 399 781 217 451 211 -26
147 388 239 -262 -46 314 395 781 212 451 207 -26
152 408 253 -267 -44 316 395 776 217 451 208 -19
152 422 269 -279 -49 333 395 785 227 451 217 -24
162 413 249 -286 -56 348 390 780 222 466 227 -10
157 399 240 -286 -42 333 380 770 222 461 222 -10
142 399 254 -277 -39 321 380 775 227 461 227 -10
147 399 249 -269 -54 328 385 784 232 471 237 0
157 409 249 -272 -49 326 385 779 227 475 243 1
166 418 249 -281 -44 331 385 783 232 470 238 1
176 428 249 -291 -39 336 379 778 232 474 243 6
166 457 289 -301 -34 341 374 782 242 474 243 6
171 453 280 -311 -59 375 374 787 251 479 253 16
176 448 270 -311 -51 367 364 782 242 489 262 25
162 443 280 -311 -44 360 369 792 256 479 253 25
157 423 265 -301 -56 363 364 791 251 499 277 36
166 433 265 -289 -51 345 358 786 247 498 272 31
176 457 280 -299 -46 350 363 801 266 493 267 27
182 477 294 -316 -49 370 358 796 266 508 287 46
202 477 275 -329 -54 387 354 795 266 511 287 41
206 487 280 -339 -34 377 354 800 278 511 287 41
202 482 280 -346 -34 384 349 804 288 526 296 51
197 482 284 -341 -37 382 344 809 292 531 301 57
187 482 294 -339 -42 385 349 819 302 536 311 67
187 487 299 -334 -51 390 344 819 297 555 321 76
211 492 280 -336 -54 395 349 823 302 550 316 62
216 512 294 -351 -32 388 348 833 317 555 326 76
226 532 304 -363 -37 405 343 842 322 570 335 81
226 532 305 -378 -37 420 348 852 331 575 335 86
211 537 324 -378 -37 420 348 852 341 579 341 93
216 527 310 -373 -54 432 343 856 341 589 351 103
216 522 305 -370 -45 421 353 865 356 589 351 98
206 532 324 -368 -43 416 357 874 361 608 366 117
216 527 310 -368 -57 430 362 879 366 603 366 108
231 532 300 -370 -45 421 367 894 375 613 366 108
231 556 324 -380 -33 418 362 894 375 617 376 117
250 561 310 -392 -45 443 372 908 395 617 371 113
246 551 305 -404 -28 438 372 908 405 631 385 123
236 546 310 -397 -28 430 377 917 405 635 385 128
216 537 320 -390 -35 430 387 932 424 635 390 128
221 528 305 -375 -50 430 392 941 429 650 400 133
216 533 315 -373 -40 418 401 940 429 655 405 138
226 557 329 -373 -47 426 410 955 434 650 395 128
246 567 320 -390 -50 445 415 959 439 655 401 130
250 581 329 -404 -35 445 410 954 439 665 411 140
255 591 334 -414 -38 458 420 969 453 660 401 130
246 586 339 -422 -38 466 420 974 458 679 416 140
241 578 334 -414 -45 466 425 974 458 674 416 135
231 558 324 -407 -45 458 429 983 463 678 411 140
221 548 324 -392 -45 444 438 982 458 678 416 140
221 543 320 -382 -50 439 458 992 468 668 407 126
246 558 310 -380 -47 434 463 1007 478 678 407 126
246 578 330 -400 -30 436 468 1006 473 683 412 126
236 568 330 -409 -40 456 477 1006 473 678 397 116
231 548 316 -401 -45 451 482 1000 473 672 402 116
221 548 325 -388 -40 434 492 1005 473 667 392 107
202 529 325 -383 -50 439 507 1010 473 663 382 107
197 514 316 -364 -60 429 516 1010 463 663 382 109
192 504 311 -354 -57 417 525 1005 453 657 373 89
187 524 335 -347 -57 409 530 1000 449 642 358 70
197 529 331 -354 -72 431 545 999 439 637 353 70
197 524 326 -362 -65 431 554 994 429 623 338 60
197 509 312 -359 -62 427 559 989 424 608 319 40
167 504 336 -352 -55 412 559 973 410 608 319 50
148 456 307 -335 -82 422 569 973 405 588 309 37
158 446 287 -301 -77 383 579 968 395 584 299 28
153 446 292 -302 -62 368 589 968 390 569 285 23
153 465 312 -299 -67 371 598 968 381 563 280 13
158 471 312 -309 -77 391 598 958 372 558 275 13
148 461 312 -314 -74 393 594 948 357 543 256 -6
143 457 312 -304 -79 388 594 943 357 524 246 -21
158 461 302 -299 -82 386 589 928 337 529 252 -9
128 427 297 -309 -69 384 584 918 332 509 232 -29
119 413 292 -277 -82 364 589 918 323 500 227 -34
119 413 292 -265 -84 354 588 913 313 499 227 -29
109 398 287 -265 -84 355 588 917 313 489 217 -43
119 408 288 -253 -86 346 583 901 298 484 208 -48
138 413 274 -262 -82 350 583 891 289 463 198 -57
124 413 288 -275 -65 346 573 891 293 459 188 -62
124 408 284 -267 -79 353 568 882 284 459 193 -57
119 393 274 -265 -77 348 562 872 269 449 183 -62
104 380 274 -255 -74 336 562 877 274 439 174 -72
109 375 264 -241 -82 328 552 871 264 439 183 -62
104 370 264 -241 -74 321 552 866 254 429 169 -77
114 380 264 -236 -77 319 552 866 254 424 165 -80
124 380 254 -245 -72 324 548 856 245 424 165 -80
114 380 264 -250 -62 319 543 850 245 418 155 -89
114 389 274 -245 -72 324 538 849 245 409 155 -89
109 356 245 -250 -77 333 528 840 230 414 155 -89
99 346 245 -232 -67 303 528 840 230 399 145 -89
94 351 254 -222 -71 298 532 849 240 399 145 -89
104 337 230 -222 -79 305 532 840 230 409 151 -83
104 351 245 -220 -62 286 532 835 225 394 141 -93
104 361 254 -227 -69 300 527 834 220 393 137 -93
119 361 240 -232 -74 310 517 829 215 388 137 -108
128 356 225 -239 -59 303 512 829 215 383 127 -103
109 356 245 -242 -47 293 512 824 220 387 137 -98
104 341 235 -232 -67 303 508 828 225 387 141 -98
89 337 245 -222 -64 290 508 823 215 392 141 -91
89 341 249 -212 -76 293 512 822 206 382 132 -91
104 327 221 -215 -79 298 508 817 206 377 127 -111
109 341 231 -215 -57 276 508 817 206 377 127 -106
109 351 241 -224 -59 288 503 812 196 377 122 -111
109 351 241 -229 -64 298 508 817 210 368 117 -116
104 337 231 -229 -64 298 503 811 206 382 137 -101
99 337 236 -220 -62 286 503 806 201 377 132 -100
99 332 231 -217 -67 288 507 811 206 367 127 -100
99 327 226 -215 -64 283 502 806 196 372 137 -95
89 337 247 -212 -62 278 502 805 191 367 127 -100
94 342 247 -212 -76 293 502 805 191 357 122 -105
119 347 227 -217 -74 295 502 799 191 357 117 -110
119 347 227 -232 -52 289 497 799 196 362 122 -115
109 347 237 -232 -52 289 501 799 196 361 123 -108
94 342 247 -227 -62 294 496 795 196 366 133 -93
99 333 232 -217 -74 296 496 799 203 361 128 -98
94 328 232 -215 -64 284 501 798 198 370 138 -88
94 338 242 -210 -67 282 491 789 188 365 133 -88
94 352 256 -215 -71 291 501 798 198 355 123 -103
109 367 256 -222 -79 306 496 789 188 365 133 -93
124 372 247 -237 -71 314 491 783 188 360 123 -102
119 382 261 -246 -59 312 496 788 198 355 118 -107
109 357 247 -249 -69 324 481 772 183 370 133 -87
104 338 232 -232 -67 305 480 772 188 355 123 -97
89 329 237 -220 -62 288 490 782 193 360 128 -92
89 339 247 -208 -71 285 490 782 188 370 138 -82
109 343 233 -213 -76 295 495 787 193 364 133 -92
109 373 262 -225 -59 290 495 786 188 369 143 -80
119 363 243 -240 -74 319 485 771 183 364 139 -85
124 373 248 -240 -59 305 480 766 178 359 134 -95
124 383 257 -247 -59 312 480 771 188 359 139 -90
114 384 267 -252 -64 322 480 770 183 364 139 -80
94 349 252 -247 -74 327 475 770 188 363 148 -75
94 349 252 -221 -76 302 475 764 178 368 143 -75
99 359 257 -221 -76 303 480 769 183 363 144 -79
109 359 248 -228 -76 311 480 774 188 363 140 -94
114 379 262 -233 -67 306 485 774 188 371 154 -70
133 379 243 -246 -71 323 480 774 188 371 149 -79
128 379 248 -256 -52 313 466 768 188 367 144 -79
114 384 267 -253 -57 315 469 763 188 367 149 -74
114 369 252 -248 -74 328 474 773 198 371 154 -74
109 359 248 -241 -67 313 465 768 188 381 164 -58
109 364 252 -234 -67 306 469 767 188 371 154 -72
124 374 248 -236 -69 311 479 772 193 371 154 -72
128 374 243 -248 -59 313 469 766 188 376 164 -63
133 393 257 -251 -54 311 464 771 188 375 154 -72
133 403 267 -263 -59 328 468 776 203 375 149 -77
128 384 252 -268 -64 337 464 771 198 390 169 -62
114 359 243 -256 -59 320 459 771 193 380 164 -67
109 364 252 -236 -63 303 468 780 208 380 164 -67
109 359 249 -236 -70 311 473 785 208 395 179 -52
119 365 244 -234 -68 306 473 785 203 395 174 -57
124 375 249 -241 -60 306 468 789 208 389 174 -67
143 404 258 -248 -60 313 468 784 208 389 169 -62
138 404 263 -273 -55 332 473 788 212 394 170 -69
133 389 253 -270 -60 335 463 783 212 398 175 -60
124 375 249 -261 -58 324 463 787 217 398 180 -55
119 365 244 -248 -60 314 472 797 222 398 180 -60
109 370 259 -241 -60 307 472 797 217 407 184 -50
109 365 254 -239 -72 316 472 802 222 407 189 -55
129 375 245 -236 -70 312 477 801 222 407 184 -60
144 389 245 -252 -55 312 472 796 217 407 184 -49
134 389 254 -266 -48 319 467 801 223 403 180 -59
120 389 269 -262 -58 324 467 806 233 407 180 -59
120 380 259 -254 -72 332 467 800 228 417 189 -49
115 361 245 -249 -68 322 467 810 238 406 180 -49
120 366 245 -237 -63 305 472 814 238 416 189 -54
120 376 254 -242 -60 308 472 814 238 421 189 -54
125 376 250 -247 -65 317 472 819 243 416 190 -47
139 386 245 -249 -60 315 472 814 233 421 195 -52
149 400 250 -262 -50 317 477 819 243 411 185 -62
139 395 254 -274 -48 327 466 819 243 415 181 -62
134 406 269 -266 -55 327 462 813 238 415 195 -52
120 372 250 -269 -65 339 462 813 238 415 190 -57
110 352 241 -245 -63 313 457 813 238 414 190 -57
115 357 241 -230 -63 298 476 826 248 409 191 -51
115 362 246 -235 -60 300 481 831 248 424 196 -51
115 367 251 -237 -63 305 475 825 238 424 196 -51
139 382 241 -240 -65 311 475 825 243 414 191 -61
139 382 241 -259 -48 314 480 830 248 414 186 -65
134 387 251 -259 -48 314 470 820 238 424 191 -56
125 387 260 -259 -55 321 475 830 248 414 191 -56
120 367 246 -254 -65 326 475 835 253 424 196 -49
115 362 246 -242 -60 309 470 824 243 424 191 -54
120 362 241 -237 -63 306 475 829 243 413 186 -63
129 362 231 -240 -58 304 485 834 248 413 186 -54
134 372 236 -245 -48 299 475 823 238 413 186 -63
139 377 236 -252 -48 306 479 833 243 408 177 -68
144 372 226 -257 -46 309 479 832 248 413 186 -63
120 372 251 -257 -38 301 474 827 243 418 196 -48
110 367 255 -245 -63 314 474 832 248 412 191 -58
110 357 246 -237 -70 314 474 832 248 422 196 -53
105 352 246 -232 -65 304 479 832 248 417 186 -58
129 363 231 -227 -68 301 489 837 243 416 182 -62
129 373 241 -245 -48 299 484 831 238 411 182 -58
125 392 265 -249 -53 309 479 831 238 406 177 -67
134 383 246 -258 -68 331 484 836 248 406 183 -60
125 353 226 -258 -53 316 474 825 238 416 187 -56
120 348 227 -238 -48 292 474 825 238 401 178 -65
110 353 242 -233 -50 289 489 834 248 401 178 -65
110 348 237 -231 -63 300 494 839 243 411 183 -56
125 344 217 -228 -60 295 494 834 238 406 178 -60
125 358 232 -233 -43 283 489 834 238 401 173 -70
134 373 237 -241 -50 297 493 839 243 405 178 -64
134 378 242 -253 -48 307 493 839 243 405 178 -69
120 373 252 -255 -50 312 483 828 243 410 183 -64
110 344 232 -246 -63 315 483 828 233 405 178 -64
111 345 233 -226 -59 290 493 838 248 400 173 -69
106 335 228 -227 -59 291 493 838 239 415 187 -59
106 325 219 -219 -60 284 492 837 239 405 178 -63
86 306 219 -214 -55 274 487 832 240 404 179 -63
96 320 224 -195 -65 264 492 842 244 404 174 -62
106 325 219 -207 -62 274 492 832 235 414 189 -52
96 335 238 -214 -55 274 492 836 235 399 174 -67
96 325 228 -214 -70 288 492 831 230 399 174 -62
116 335 219 -209 -65 279 487 825 230 394 174 -67
101 335 233 -224 -50 279 492 835 240 394 164 -86
86 335 248 -217 -65 286 482 830 240 403 184 -56
106 340 233 -209 -79 293 482 825 235 403 174 -66
86 315 228 -222 -62 288 482 815 225 403 174 -71
77 296 219 -200 -70 274 477 825 235 397 174 -66
91 297 204 -185 -70 259 497 839 235 397 164 -75
96 302 204 -192 -55 252 492 829 225 397 169 -75
111 326 214 -197 -53 254 497 829 230 388 154 -85
106 326 219 -217 -50 271 497 833 235 388 155 -88
91 321 228 -214 -55 274 486 833 244 402 165 -83
96 321 224 -205 -67 276 486 837 244 407 175 -69
77 302 224 -207 -62 274 496 832 235 407 175 -69
81 298 214 -187 -72 264 486 822 215 392 165 -73
91 298 204 -187 -65 257 496 827 220 378 146 -83
101 317 214 -192 -55 253 496 832 230 377 151 -88
111 332 219 -207 -55 267 490 827 225 387 161 -77
106 342 234 -219 -53 277 500 836 235 382 156 -82
106 352 244 -222 -62 289 500 836 235 391 166 -72
96 352 254 -227 -67 299 500 831 230 391 166 -72
77 342 264 -222 -77 304 504 835 235 382 161 -72
72 342 268 -207 -92 304 514 840 244 390 166 -68
86 347 259 -205 -97 306 514 834 235 395 171 -68
81 347 264 -214 -84 305 519 834 230 386 156 -80
101 357 254 -212 -89 307 519 834 225 375 147 -90
116 361 245 -227 -75 307 524 834 230 375 147 -90
111 376 265 -236 -62 305 518 844 240 380 156 -80
111 376 265 -241 -75 322 513 839 240 389 166 -75
106 376 269 -241 -75 322 503 833 240 389 166 -75
91 381 289 -240 -79 325 503 838 240 394 166 -75
96 386 289 -235 -97 337 503 838 235 394 171 -69
96 386 289 -240 -94 339 513 842 235 394 171 -69
111 400 289 -240 -94 339 503 837 230 399 181 -65
135 410 274 -254 -87 347 489 831 230 389 171 -65
125 416 289 -271 -67 344 479 831 240 388 171 -69
111 406 294 -269 -79 354 469 826 235 398 181 -60
116 382 265 -257 -89 351 469 826 235 393 171 -65
106 372 265 -247 -72 326 469 831 240 398 177 -53
116 387 269 -237 -77 321 469 831 235 408 187 -48
125 397 269 -249 -75 330 469 830 235 403 182 -53
135 421 284 -260 -70 335 464 830 235 402 182 -58
145 436 290 -277 -72 355 459 835 241 402 182 -58
140 421 280 -290 -70 365 454 840 250 407 187 -53
140 406 266 -280 -67 352 449 834 250 417 196 -48
135 387 251 -272 -60 338 434 813 231 416 196 -47
116 362 246 -260 -55 321 434 808 231 396 187 -52
106 367 261 -238 -62 306 429 803 221 396 182 -57
101 387 285 -236 -75 316 434 803 216 386 172 -62
130 393 261 -243 -89 338 438 818 231 386 172 -62
160 422 261 -260 -62 328 428 808 226 401 187 -52
164 422 256 -290 -48 343 414 807 231 401 187 -52
160 402 241 -292 -43 340 409 807 231 406 197 -45
150 398 246 -280 -39 323 414 802 231 411 202 -30
150 398 246 -272 -46 323 423 817 241 405 193 -40
150 383 231 -272 -46 323 443 840 260 410 197 -35
135 379 241 -265 -39 308 448 844 260 434 212 -25
135 384 246 -255 -51 311 457 854 270 429 207 -35
140 394 251 -258 -54 316 453 849 260 439 212 -30
164 389 222 -265 -54 323 442 839 255 434 213 -34
160 394 231 -275 -27 307 437 835 255 424 203 -44
150 360 207 -275 -34 314 442 839 260 419 198 -44
135 335 197 -253 -27 285 437 824 245 428 203 -39
121 330 207 -233 -29 268 447 834 245 414 194 -49
116 325 207 -224 -41 270 447 824 241 413 194 -49
116 340 222 -220 -44 268 447 814 231 408 189 -61
101 345 242 -227 -51 283 452 823 245 403 179 -66
86 330 242 -222 -68 295 442 818 236 418 194 -57
96 335 237 -208 -76 289 456 822 241 408 179 -76
96 335 237 -215 -68 289 466 822 226 403 174 -76
86 291 203 -215 -68 289 461 812 211 383 159 -86
86 272 184 -188 -56 249 471 832 231 369 150 -96
77 281 203 -178 -46 230 481 832 231 388 164 -85
86 291 203 -178 -61 245 481 826 226 388 159 -90
96 281 185 -188 -56 249 476 826 221 382 150 -95
106 286 180 -188 -41 235 475 821 216 378 145 -109
96 292 194 -195 -34 235 475 821 221 373 145 -109
96 287 189 -193 -46 245 470 820 216 373 145 -99
106 287 180 -190 -44 240 460 810 211 373 150 -99
81 263 180 -195 -34 235 460 804 211 368 141 -107
77 253 175 -171 -46 223 470 814 216 367 141 -102
86 258 170 -164 -46 215 469 809 206 377 151 -93
86 263 175 -171 -39 216 469 809 206 367 141 -107
96 268 170 -173 -41 221 474 809 206 361 141 -107
111 282 170 -181 -34 221 469 808 201 366 141 -107
96 282 185 -195 -27 229 474 813 211 356 131 -117
81 287 204 -188 -41 236 474 813 216 361 136 -106
86 263 175 -183 -59 248 474 813 211 371 146 -101
77 248 170 -173 -41 221 474 812 216 366 136 -111
77 258 180 -161 -44 211 479 817 213 371 146 -101
77 249 170 -166 -49 221 484 811 208 371 141 -111
81 264 181 -161 -44 211 478 806 208 366 131 -121
96 279 181 -171 -46 224 483 811 208 371 136 -116
91 269 176 -186 -39 231 488 816 213 365 132 -114
86 269 181 -178 -39 224 473 806 208 370 137 -114
77 269 190 -176 -44 226 488 810 213 365 132 -114
67 264 195 -171 -54 231 488 815 218 375 137 -109
77 250 171 -164 -61 231 483 810 208 375 137 -109
72 241 166 -161 -44 211 488 815 208 375 132 -114
81 241 156 -154 -44 204 488 814 208 369 127 -119
86 265 176 -160 -34 199 488 814 208 369 128 -118
96 260 161 -174 -41 221 488 813 208 374 128 -128
91 275 181 -177 -29 211 493 818 218 369 128 -123
86 260 171 -182 -41 229 493 818 213 377 138 -113
77 241 161 -172 -39 217 488 813 213 373 133 -118
57 241 181 -157 -39 203 488 818 213 368 128 -118
67 241 171 -148 -59 212 493 817 213 373 133 -118
81 265 181 -152 -49 208 496 817 213 373 133 -116
91 275 181 -172 -46 225 492 817 213 368 128 -121
96 275 176 -182 -41 230 487 807 203 368 128 -121
96 275 176 -184 -37 227 487 811 213 358 114 -135
91 260 166 -184 -37 227 487 811 213 368 128 -126
86 255 166 -175 -36 216 482 810 213 372 133 -121
77 245 166 -171 -39 213 495 820 218 367 128 -121
62 245 181 -161 -43 209 491 815 213 376 138 -110
77 255 177 -153 -58 216 491 815 208 372 128 -115
91 255 162 -166 -48 218 495 820 213 367 123 -125
96 265 167 -173 -34 211 491 814 208 372 128 -125
96 276 177 -180 -34 218 491 809 208 367 119 -130
91 266 172 -185 -39 228 495 814 213 366 123 -125
86 251 162 -178 -39 221 486 809 213 375 133 -120
77 242 162 -168 -36 209 495 813 218 371 129 -123
77 246 167 -158 -41 204 500 822 218 374 134 -118
77 251 173 -161 -43 209 499 817 208 379 139 -113
72 261 188 -163 -46 213 494 817 208 370 124 -132
86 261 173 -166 -56 226 499 817 213 374 129 -123
106 271 163 -173 -41 219 494 817 208 379 129 -118
101 276 173 -188 -26 219 494 812 213 370 120 -132
91 261 168 -188 -34 227 494 811 218 374 129 -122
77 237 158 -175 -36 217 490 811 213 379 129 -122
67 242 173 -156 -39 200 494 816 218 374 129 -122
77 238 158 -153 -51 210 504 820 213 378 139 -112
77 252 173 -156 -39 200 499 815 208 378 134 -122
86 277 188 -163 -46 214 499 815 208 373 129 -127
97 296 197 -180 -48 234 490 799 199 373 125 -125
87 291 202 -196 -48 249 490 789 194 364 121 -129
63 306 241 -189 -56 249 490 779 190 364 116 -134
58 316 256 -184 -87 275 499 770 180 369 125 -120
68 331 261 -186 -97 288 514 765 180 363 125 -120
78 370 291 -198 -95 297 508 750 175 372 135 -115
87 395 306 -223 -104 332 489 739 185 382 145 -110
102 439 335 -240 -107 351 454 730 209 415 185 -70
126 458 330 -269 -114 388 445 735 229 464 234 -36
136 468 330 -291 -100 395 449 768 278 493 258 -16
156 512 355 -301 -95 400 445 826 346 542 302 7
185 488 301 -333 -97 434 434 869 414 615 361 51
200 429 228 -335 -56 395 405 923 507 679 409 80
239 356 117 -313 -12 329 400 1006 619 776 478 129
287 248 -39 -296 62 237 419 1152 766 859 517 146
312 122 -189 -268 163 104 444 1338 951 947 531 126
346 68 -276 -217 251 -32 453 1450 1044 1064 570 122
370 24 -345 -207 312 -103 453 1522 1102 1093 551 87
351 -29 -380 -197 358 -159 434 1537 1107 1102 527 68
326 -73 -400 -161 366 -204 375 1395 961 1078 502 58
312 -131 -444 -126 363 -236 322 1170 766 941 400 0
326 -180 -507 -90 378 -287 252 935 575 775 302 -47
322 -224 -546 -73 417 -343 194 759 419 634 214 -91
322 -253 -575 -48 434 -384 150 661 317 506 136 -145
287 -283 -570 -34 448 -413 135 583 214 433 102 -150
258 -330 -590 -2 429 -426 135 471 92 340 39 -189
224 -355 -580 35 423 -461 150 339 -43 232 -24 -233
165 -369 -536 64 401 -468 169 188 -200 124 -87 -272
131 -360 -492 101 350 -454 208 60 -351 -2 -169 -319
92 -384 -477 113 311 -427 335 40 -429 -114 -243 -372
53 -389 -443 145 284 -432 394 -17 -527 -192 -301 -421
19 -379 -399 167 247 -417 452 -82 -610 -280 -369 -470
0 -379 -379 179 208 -390 550 -82 -649 -353 -423 -509
-34 -355 -319 189 189 -380 643 -73 -678 -402 -467 -548
-68 -321 -251 193 141 -339 721 -48 -673 -441 -511 -587
-107 -286 -178 193 90 -288 799 -9 -653 -450 -526 -606
-146 -272 -125 195 33 -233 906 38 -629 -442 -535 -620
-161 -243 -80 207 -11 -199 988 68 -605 -432 -550 -645
-165 -203 -37 200 -41 -162 1013 77 -595 -412 -535 -635
-185 -139 45 183 -65 -121 949 72 -585 -393 -521 -625
-190 -95 94 162 -115 -46 876 67 -561 -373 -501 -610
-190 -41 147 142 -142 0 852 76 -536 -334 -462 -576
-185 11 197 116 -169 52 842 90 -512 -301 -432 -555
-185 65 250 86 -191 104 777 90 -488 -272 -407 -525
-195 89 285 60 -218 158 699 89 -468 -238 -368 -491
-195 99 294 52 -240 187 646 118 -429 -213 -344 -472
-170 85 255 47 -245 197 611 153 -385 -166 -300 -438
-150 105 255 42 -213 170 553 182 -351 -117 -256 -403
-121 129 250 22 -203 180 445 211 -312 -83 -232 -389
-72 149 221 -3 -185 191 348 226 -285 -39 -192 -349
-38 164 202 -37 -146 186 289 249 -256 -14 -172 -339
-8 178 187 -61 -119 183 236 293 -207 9 -153 -319
1 193 191 -83 -97 183 187 317 -183 58 -109 -280
1 178 176 -95 -93 193 161 347 -154 82 -84 -261
20 188 167 -88 -86 178 186 409 -100 107 -65 -246
30 217 187 -103 -71 178 225 462 -61 150 -31 -217
40 242 201 -122 -76 203 264 516 -22 179 -6 -205
83 281 196 -139 -79 222 313 579 21 213 12 -186
98 315 216 -181 -54 240 366 638 70 252 37 -171
108 325 216 -205 -57 267 415 696 119 286 61 -156
103 320 216 -215 -52 272 440 735 153 335 105 -113
93 310 216 -210 -54 270 449 749 167 360 120 -108
103 310 206 -200 -59 265 464 763 177 368 125 -108
88 300 211 -205 -49 260 464 768 182 383 134 -92
88 305 216 -193 -59 257 464 773 182 388 139 -92
103 315 211 -195 -62 262 469 782 192 387 134 -97
113 316 201 -208 -52 266 459 781 182 397 144 -87
123 321 196 -213 -42 261 459 781 187 392 134 -102
123 330 206 -220 -35 261 464 791 202 392 134 -97
113 326 211 -225 -40 271 458 791 197 406 155 -80
98 316 216 -217 -47 271 458 796 202 401 150 -85
118 306 187 -205 -57 268 458 800 206 406 155 -75
98 296 196 -211 -32 249 458 799 202 421 165 -70
103 316 211 -196 -47 249 463 804 206 411 155 -80
127 321 192 -209 -52 266 463 809 211 416 155 -80
123 335 211 -223 -30 258 457 804 202 420 160 -75
118 345 226 -228 -42 276 457 808 211 410 150 -89
132 335 201 -231 -52 288 457 803 211 420 160 -79
123 321 197 -233 -32 271 452 793 206 420 160 -79
98 316 217 -221 -35 261 462 807 216 415 155 -84
108 322 212 -206 -57 269 457 807 211 430 169 -69
123 322 197 -214 -49 269 457 807 211 429 165 -74
123 327 202 -221 -35 262 457 807 211 424 160 -74
127 336 207 -223 -37 267 457 806 206 424 161 -72
127 336 207 -231 -37 274 452 806 211 418 156 -82
127 346 217 -231 -37 274 451 806 216 418 156 -82
118 336 218 -236 -42 284 446 801 211 428 166 -67
123 323 198 -226 -47 279 446 800 211 423 166 -72
118 323 203 -221 -35 262 446 800 211 423 170 -72
118 323 203 -218 -40 264 446 804 211 428 166 -67
118 342 223 -218 -40 264 451 809 216 423 167 -71
118 357 238 -228 -49 284 446 804 206 433 171 -66
142 352 208 -236 -57 299 437 794 202 423 167 -71
142 342 198 -245 -30 281 441 794 202 418 157 -76
113 328 213 -240 -25 272 441 798 211 422 162 -76
118 318 198 -218 -49 272 441 803 216 432 176 -62
113 318 203 -216 -39 259 446 808 217 432 176 -57
108 342 233 -214 -44 262 446 803 212 436 186 -50
118 352 233 -223 -61 289 446 797 207 432 176 -64
132 352 218 -233 -56 294 437 792 203 427 171 -74
132 362 228 -240 -42 286 432 787 198 426 171 -69
142 352 208 -245 -46 296 431 796 212 421 171 -69
137 362 224 -245 -32 282 421 791 207 440 181 -60
123 347 224 -248 -42 295 426 787 203 430 181 -55
108 323 214 -233 -49 287 426 787 207 430 181 -54
118 342 224 -214 -51 270 426 786 207 434 181 -49
123 367 243 -228 -51 285 436 795 212 434 181 -54
137 352 214 -244 -59 307 425 795 212 439 191 -49
147 363 214 -244 -37 285 410 776 193 439 186 -54
147 368 219 -254 -32 290 415 785 207 420 167 -68
147 358 209 -256 -34 296 420 789 212 439 186 -49
137 353 214 -251 -29 286 410 779 207 444 192 -47
118 363 243 -244 -37 286 415 788 217 439 192 -42
127 358 229 -239 -61 305 415 788 212 453 202 -27
132 353 219 -241 -49 296 410 779 198 448 197 -27
137 368 229 -241 -42 288 410 784 203 438 187 -52
147 377 229 -251 -44 301 410 783 203 438 192 -42
152 382 229 -261 -39 305 404 778 203 438 192 -42
152 377 224 -267 -37 308 404 783 212 433 192 -41
137 387 248 -264 -34 303 399 783 217 442 202 -26
123 377 253 -262 -54 320 399 782 222 452 207 -26
127 363 234 -250 -64 318 399 782 217 457 216 -21
137 378 239 -245 -51 301 399 776 212 457 216 -21
142 383 239 -257 -49 310 399 781 217 451 211 -26
147 388 239 -262 -46 314 395 781 212 451 207 -26
152 408 253 -267 -44 316 395 776 217 451 208 -19
152 422 269 -279 -49 333 395 785 227 451 217 -24
162 413 249 -286 -56 348 390 780 222 466 227 -10
157 399 240 -286 -42 333 380 770 222 461 222 -10
142 399 254 -277 -39 321 380 775 227 461 227 -10
147 399 249 -269 -54 328 385 784 232 471 237 0
157 409 249 -272 -49 326 385 779 227 475 243 1
166 418 249 -281 -44 331 385 783 232 470 238 1
176 428 249 -291 -39 336 379 778 232 474 243 6
166 457 289 -301 -34 341 374 782 242 474 243 6
171 453 280 -311 -59 375 374 787 251 479 253 16
176 448 270 -311 -51 367 364 782 242 489 262 25
162 443 280 -311 -44 360 369 792 256 479 253 25
157 423 265 -301 -56 363 364 791 251 499 277 36
166 433 265 -289 -51 345 358 786 247 498 272 31
176 457 280 -299 -46 350 363 801 266 493 267 27
182 477 294 -316 -49 370 358 796 266 508 287 46
202 477 275 -329 -54 387 354 795 266 511 287 41
206 487 280 -339 -34 377 354 800 278 511 287 41
202 482 280 -346 -34 384 349 804 288 526 296 51
197 482 284 -341 -37 382 344 809 292 531 301 57
187 482 294 -339 -42 385 349 819 302 536 311 67
187 487 299 -334 -51 390 344 819 297 555 321 76
211 492 280 -336 -54 395 349 823 302 550 316 62
216 512 294 -351 -32 388 348 833 317 555 326 76
226 532 304 -363 -37 405 343 842 322 570 335 81
226 532 305 -378 -37 420 348 852 331 575 335 86
211 537 324 -378 -37 420 348 852 341 579 341 93
216 527 310 -373 -54 432 343 856 341 589 351 103
216 522 305 -370 -45 421 353 865 356 589 351 98
206 532 324 -368 -43 416 357 874 361 608 366 117
216 527 310 -368 -57 430 362 879 366 603 366 108
231 532 300 -370 -45 421 367 894 375 613 366 108
231 556 324 -380 -33 418 362 894 375 617 376 117
250 561 310 -392 -45 443 372 908 395 617 371 113
246 551 305 -404 -28 438 372 908 405 631 385 123
236 546 310 -397 -28 430 377 917 405 635 385 128
216 537 320 -390 -35 430 387 932 424 635 390 128
221 528 305 -375 -50 430 392 941 429 650 400 133
216 533 315 -373 -40 418 401 940 429 655 405 138
226 557 329 -373 -47 426 410 955 434 650 395 128
246 567 320 -390 -50 445 415 959 439 655 401 130
250 581 329 -404 -35 445 410 954 439 665 411 140
255 591 334 -414 -38 458 420 969 453 660 401 130
246 586 339 -422 -38 466 420 974 458 679 416 140
241 578 334 -414 -45 466 425 974 458 674 416 135
231 558 324 -407 -45 458 429 983 463 678 411 140
221 548 324 -392 -45 444 438 982 458 678 416 140
221 543 320 -382 -50 439 458 992 468 668 407 126
246 558 310 -380 -47 434 463 1007 478 678 407 126
246 578 330 -400 -30 436 468 1006 473 683 412 126
236 568 330 -409 -40 456 477 1006 473 678 397 116
231 548 316 -401 -45 451 482 1000 473 672 402 116
221 548 325 -388 -40 434 492 1005 473 667 392 107
202 529 325 -383 -50 439 507 1010 473 663 382 107
197 514 316 -364 -60 429 516 1010 463 663 382 109
192 504 311 -354 -57 417 525 1005 453 657 373 89
187 524 335 -347 -57 409 530 1000 449 642 358 70
197 529 331 -354 -72 431 545 999 439 637 353 70
197 524 326 -362 -65 431 554 994 429 623 338 60
197 509 312 -359 -62 427 559 989 424 608 319 40
167 504 336 -352 -55 412 559 973 410 608 319 50
148 456 307 -335 -82 422 569 973 405 588 309 37
158 446 287 -301 -77 383 579 968 395 584 299 28
153 446 292 -302 -62 368 589 968 390 569 285 23
153 465 312 -299 -67 371 598 968 381 563 280 13
158 471 312 -309 -77 391 598 958 372 558 275 13
148 461 312 -314 -74 393 594 948 357 543 256 -6
143 457 312 -304 -79 388 594 943 357 524 246 -21
158 461 302 -299 -82 386 589 928 337 529 252 -9
128 427 297 -309 -69 384 584 918 332 509 232 -29
119 413 292 -277 -82 364 589 918 323 500 227 -34
119 413 292 -265 -84 354 588 913 313 499 227 -29
109 398 287 -265 -84 355 588 917 313 489 217 -43
119 408 288 -253 -86 346 583 901 298 484 208 -48
138 413 274 -262 -82 350 583 891 289 463 198 -57
124 413 288 -275 -65 346 573 891 293 459 188 -62
124 408 284 -267 -79 353 568 882 284 459 193 -57
119 393 274 -265 -77 348 562 872 269 449 183 -62
104 380 274 -255 -74 336 562 877 274 439 174 -72
109 375 264 -241 -82 328 552 871 264 439 183 -62
104 370 264 -241 -74 321 552 866 254 429 169 -77
114 380 264 -236 -77 319 552 866 254 424 165 -80
124 380 254 -245 -72 324 548 856 245 424 165 -80
114 380 264 -250 -62 319 543 850 245 418 155 -89
114 389 274 -245 -72 324 538 849 245 409 155 -89
109 356 245 -250 -77 333 528 840 230 414 155 -89
99 346 245 -232 -67 303 528 840 230 399 145 -89
94 351 254 -222 -71 298 532 849 240 399 145 -89
104 337 230 -222 -79 305 532 840 230 409 151 -83
104 351 245 -220 -62 286 532 835 225 394 141 -93
104 361 254 -227 -69 300 527 834 220 393 137 -93
119 361 240 -232 -74 310 517 829 215 388 137 -108
128 356 225 -239 -59 303 512 829 215 383 127 -103
109 356 245 -242 -47 293 512 824 220 387 137 -98
104 341 235 -232 -67 303 508 828 225 387 141 -98
89 337 245 -222 -64 290 508 823 215 392 141 -91
89 341 249 -212 -76 293 512 822 206 382 132 -91
104 327 221 -215 -79 298 508 817 206 377 127 -111
109 341 231 -215 -57 276 508 817 206 377 127 -106
109 351 241 -224 -59 288 503 812 196 377 122 -111
109 351 241 -229 -64 298 508 817 210 368 117 -116
104 337 231 -229 -64 298 503 811 206 382 137 -101
99 337 236 -220 -62 286 503 806 201 377 132 -100
99 332 231 -217 -67 288 507 811 206 367 127 -100
99 327 226 -215 -64 283 502 806 196 372 137 -95
89 337 247 -212 -62 278 502 805 191 367 127 -100
94 342 247 -212 -76 293 502 805 191 357 122 -105
119 347 227 -217 -74 295 502 799 191 357 117 -110
119 347 227 -232 -52 289 497 799 196 362 122 -115
109 347 237 -232 -52 289 501 799 196 361 123 -108
94 342 247 -227 -62 294 496 795 196 366 133 -93
99 333 232 -217 -74 296 496 799 203 361 128 -98
94 328 232 -215 -64 284 501 798 198 370 138 -88
94 338 242 -210 -67 282 491 789 188 365 133 -88
94 352 256 -215 -71 291 501 798 198 355 123 -103
109 367 256 -222 -79 306 496 789 188 365 133 -93
124 372 247 -237 -71 314 491 783 188 360 123 -102
119 382 261 -246 -59 312 496 788 198 355 118 -107
109 357 247 -249 -69 324 481 772 183 370 133 -87
104 338 232 -232 -67 305 480 772 188 355 123 -97
89 329 237 -220 -62 288 490 782 193 360 128 -92
89 339 247 -208 -71 285 490 782 188 370 138 -82
109 343 233 -213 -76 295 495 787 193 364 133 -92
109 373 262 -225 -59 290 495 786 188 369 143 -80
119 363 243 -240 -74 319 485 771 183 364 139 -85
124 373 248 -240 -59 305 480 766 178 359 134 -95
124 383 257 -247 -59 312 480 771 188 359 139 -90
114 384 267 -252 -64 322 480 770 183 364 139 -80
94 349 252 -247 -74 327 475 770 188 363 148 -75
94 349 252 -221 -76 302 475 764 178 368 143 -75
99 359 257 -221 -76 303 480 769 183 363 144 -79
109 359 248 -228 -76 311 480 774 188 363 140 -94
114 379 262 -233 -67 306 485 774 188 371 154 -70
133 379 243 -246 -71 323 480 774 188 371 149 -79
128 379 248 -256 -52 313 466 768 188 367 144 -79
114 384 267 -253 -57 315 469 763 188 367 149 -74
114 369 252 -248 -74 328 474 773 198 371 154 -74
109 359 248 -241 -67 313 465 768 188 381 164 -58
109 364 252 -234 -67 306 469 767 188 371 154 -72
124 374 248 -236 -69 311 479 772 193 371 154 -72
128 374 243 -248 -59 313 469 766 188 376 164 -63
133 393 257 -251 -54 311 464 771 188 375 154 -72
133 403 267 -263 -59 328 468 776 203 375 149 -77
128 384 252 -268 -64 337 464 771 198 390 169 -62
114 359 243 -256 -59 320 459 771 193 380 164 -67
109 364 252 -236 -63 303 468 780 208 380 164 -67
109 359 249 -236 -70 311 473 785 208 395 179 -52
119 365 244 -234 -68 306 473 785 203 395 174 -57
124 375 249 -241 -60 306 468 789 208 389 174 -67
143 404 258 -248 -60 313 468 784 208 389 169 -62
138 404 263 -273 -55 332 473 788 212 394 170 -69
133 389 253 -270 -60 335 463 783 212 398 175 -60
124 375 249 -261 -58 324 463 787 217 398 180 -55
119 365 244 -248 -60 314 472 797 222 398 180 -60
109 370 259 -241 -60 307 472 797 217 407 184 -50
109 365 254 -239 -72 316 472 802 222 407 189 -55
129 375 245 -236 -70 312 477 801 222 407 184 -60
144 389 245 -252 -55 312 472 796 217 407 184 -49
134 389 254 -266 -48 319 467 801 223 403 180 -59
120 389 269 -262 -58 324 467 806 233 407 180 -59
120 380 259 -254 -72 332 467 800 228 417 189 -49
115 361 245 -249 -68 322 467 810 238 406 180 -49
120 366 245 -237 -63 305 472 814 238 416 189 -54
120 376 254 -242 -60 308 472 814 238 421 189 -54
125 376 250 -247 -65 317 472 819 243 416 190 -47
139 386 245 -249 -60 315 472 814 233 421 195 -52
149 400 250 -262 -50 317 477 819 243 411 185 -62
139 395 254 -274 -48 327 466 819 243 415 181 -62
134 406 269 -266 -55 327 462 813 238 415 195 -52
120 372 250 -269 -65 339 462 813 238 415 190 -57
110 352 241 -245 -63 313 457 813 238 414 190 -57
115 357 241 -230 -63 298 476 826 248 409 191 -51
115 362 246 -235 -60 300 481 831 248 424 196 -51
115 367 251 -237 -63 305 475 825 238 424 196 -51
139 382 241 -240 -65 311 475 825 243 414 191 -61
139 382 241 -259 -48 314 480 830 248 414 186 -65
134 387 251 -259 -48 314 470 820 238 424 191 -56
125 387 260 -259 -55 321 475 830 248 414 191 -56
120 367 246 -254 -65 326 475 835 253 424 196 -49
115 362 246 -242 -60 309 470 824 243 424 191 -54
120 362 241 -237 -63 306 475 829 243 413 186 -63
129 362 231 -240 -58 304 485 834 248 413 186 -54
134 372 236 -245 -48 299 475 823 238 413 186 -63
139 377 236 -252 -48 306 479 833 243 408 177 -68
144 372 226 -257 -46 309 479 832 248 413 186 -63
120 372 251 -257 -38 301 474 827 243 418 196 -48
110 367 255 -245 -63 314 474 832 248 412 191 -58
110 357 246 -237 -70 314 474 832 248 422 196 -53
105 352 246 -232 -65 304 479 832 248 417 186 -58
129 363 231 -227 -68 301 489 837 243 416 182 -62
129 373 241 -245 -48 299 484 831 238 411 182 -58
125 392 265 -249 -53 309 479 831 238 406 177 -67
134 383 246 -258 -68 331 484 836 248 406 183 -60
125 353 226 -258 -53 316 474 825 238 416 187 -56
120 348 227 -238 -48 292 474 825 238 401 178 -65
110 353 242 -233 -50 289 489 834 248 401 178 -65
110 348 237 -231 -63 300 494 839 243 411 183 -56
125 344 217 -228 -60 295 494 834 238 406 178 -60
125 358 232 -233 -43 283 489 834 238 401 173 -70
134 373 237 -241 -50 297 493 839 243 405 178 -64
134 378 242 -253 -48 307 493 839 243 405 178 -69
120 373 252 -255 -50 312 483 828 243 410 183 -64
110 344 232 -246 -63 315 483 828 233 405 178 -64
111 345 233 -226 -59 290 493 838 248 400 173 -69
106 335 228 -227 -59 291 493 838 239 415 187 -59
106 325 219 -219 -60 284 492 837 239 405 178 -63
86 306 219 -214 -55 274 487 832 240 404 179 -63
96 320 224 -195 -65 264 492 842 244 404 174 -62
106 325 219 -207 -62 274 492 832 235 414 189 -52
96 335 238 -214 -55 274 492 836 235 399 174 -67
96 325 228 -214 -70 288 492 831 230 399 174 -62
116 335 219 -209 -65 279 487 825 230 394 174 -67
101 335 233 -224 -50 279 492 835 240 394 164 -86
86 335 248 -217 -65 286 482 830 240 403 184 -56
106 340 233 -209 -79 293 482 825 235 403 174 -66
86 315 228 -222 -62 288 482 815 225 403 174 -71
77 296 219 -200 -70 274 477 825 235 397 174 -66
91 297 204 -185 -70 259 497 839 235 397 164 -75
96 302 204 -192 -55 252 492 829 225 397 169 -75
111 326 214 -197 -53 254 497 829 230 388 154 -85
106 326 219 -217 -50 271 497 833 235 388 155 -88
91 321 228 -214 -55 274 486 833 244 402 165 -83
96 321 224 -205 -67 276 486 837 244 407 175 -69
77 302 224 -207 -62 274 496 832 235 407 175 -69
81 298 214 -187 -72 264 486 822 215 392 165 -73
91 298 204 -187 -65 257 496 827 220 378 146 -83
101 317 214 -192 -55 253 496 832 230 377 151 -88
111 332 219 -207 -55 267 490 827 225 387 161 -77
106 342 234 -219 -53 277 500 836 235 382 156 -82
106 352 244 -222 -62 289 500 836 235 391 166 -72
96 352 254 -227 -67 299 500 831 230 391 166 -72
77 342 264 -222 -77 304 504 835 235 382 161 -72
72 342 268 -207 -92 304 514 840 244 390 166 -68
86 347 259 -205 -97 306 514 834 235 395 171 -68
81 347 264 -214 -84 305 519 834 230 386 156 -80
101 357 254 -212 -89 307 519 834 225 375 147 -90
116 361 245 -227 -75 307 524 834 230 375 147 -90
111 376 265 -236 -62 305 518 844 240 380 156 -80
111 376 265 -241 -75 322 513 839 240 389 166 -75
106 376 269 -241 -75 322 503 833 240 389 166 -75
91 381 289 -240 -79 325 503 838 240 394 166 -75
96 386 289 -235 -97 337 503 838 235 394 171 -69
96 386 289 -240 -94 339 513 842 235 394 171 -69
111 400 289 -240 -94 339 503 837 230 399 181 -65
135 410 274 -254 -87 347 489 831 230 389 171 -65
125 416 289 -271 -67 344 479 831 240 388 171 -69
111 406 294 -269 -79 354 469 826 235 398 181 -60
116 382 265 -257 -89 351 469 826 235 393 171 -65
106 372 265 -247 -72 326 469 831 240 398 177 -53
116 387 269 -237 -77 321 469 831 235 408 187 -48
125 397 269 -249 -75 330 469 830 235 403 182 -53
135 421 284 -260 -70 335 464 830 235 402 182 -58
145 436 290 -277 -72 355 459 835 241 402 182 -58
140 421 280 -290 -70 365 454 840 250 407 187 -53
140 406 266 -280 -67 352 449 834 250 417 196 -48
135 387 251 -272 -60 338 434 813 231 416 196 -47
116 362 246 -260 -55 321 434 808 231 396 187 -52
106 367 261 -238 -62 306 429 803 221 396 182 -57
101 387 285 -236 -75 316 434 803 216 386 172 -62
130 393 261 -243 -89 338 438 818 231 386 172 -62
160 422 261 -260 -62 328 428 808 226 401 187 -52
164 422 256 -290 -48 343 414 807 231 401 187 -52
160 402 241 -292 -43 340 409 807 231 406 197 -45
150 398 246 -280 -39 323 414 802 231 411 202 -30
150 398 246 -272 -46 323 423 817 241 405 193 -40
150 383 231 -272 -46 323 443 840 260 410 197 -35
135 379 241 -265 -39 308 448 844 260 434 212 -25
135 384 246 -255 -51 311 457 854 270 429 207 -35
140 394 251 -258 -54 316 453 849 260 439 212 -30
164 389 222 -265 -54 323 442 839 255 434 213 -34
160 394 231 -275 -27 307 437 835 255 424 203 -44
150 360 207 -275 -34 314 442 839 260 419 198 -44
135 335 197 -253 -27 285 437 824 245 428 203 -39
121 330 207 -233 -29 268 447 834 245 414 194 -49
116 325 207 -224 -41 270 447 824 241 413 194 -49
116 340 222 -220 -44 268 447 814 231 408 189 -61
101 345 242 -227 -51 283 452 823 245 403 179 -66
86 330 242 -222 -68 295 442 818 236 418 194 -57
96 335 237 -208 -76 289 456 822 241 408 179 -76
96 335 237 -215 -68 289 466 822 226 403 174 -76
86 291 203 -215 -68 289 461 812 211 383 159 -86
86 272 184 -188 -56 249 471 832 231 369 150 -96
77 281 203 -178 -46 230 481 832 231 388 164 -85
86 291 203 -178 -61 245 481 826 226 388 159 -90
96 281 185 -188 -56 249 476 826 221 382 150 -95
106 286 180 -188 -41 235 475 821 216 378 145 -109
96 292 194 -195 -34 235 475 821 221 373 145 -109
96 287 189 -193 -46 245 470 820 216 373 145 -99
106 287 180 -190 -44 240 460 810 211 373 150 -99
81 263 180 -195 -34 235 460 804 211 368 141 -107
77 253 175 -171 -46 223 470 814 216 367 141 -102
86 258 170 -164 -46 215 469 809 206 377 151 -93
86 263 175 -171 -39 216 469 809 206 367 141 -107
96 268 170 -173 -41 221 474 809 206 361 141 -107
111 282 170 -181 -34 221 469 808 201 366 141 -107
96 282 185 -195 -27 229 474 813 211 356 131 -117
81 287 204 -188 -41 236 474 813 216 361 136 -106
