   0.0000000e+00  -3.2500000e-01
   2.7777778e-03  -2.7303848e-01
   5.5555556e-03  -2.6803848e-01
   8.3333333e-03  -3.2000000e-01
   1.1111111e-02  -3.9196152e-01
   1.3888889e-02  -3.9696152e-01
   1.6666667e-02  -3.4000000e-01
   1.9444444e-02  -2.6303848e-01
   2.2222222e-02  -2.5803848e-01
   2.5000000e-02  -3.1500000e-01
   2.7777778e-02  -3.9196152e-01
   3.0555556e-02  -4.0696152e-01
   3.3333333e-02  -3.5500000e-01
   3.6111111e-02  -2.8303848e-01
   3.8888889e-02  -2.7303848e-01
   4.1666667e-02  -3.0500000e-01
   4.4444444e-02  -3.5696152e-01
   4.7222222e-02  -3.8696152e-01
   5.0000000e-02  -3.5000000e-01
   5.2777778e-02  -3.1803848e-01
   5.5555556e-02  -3.1303848e-01
   5.8333333e-02  -3.5000000e-01
   6.1111111e-02  -4.0696152e-01
   6.3888889e-02  -4.1696152e-01
   6.6666667e-02  -3.8000000e-01
   6.9444444e-02  -3.1803848e-01
   7.2222222e-02  -3.0303848e-01
   7.5000000e-02  -3.2500000e-01
   7.7777778e-02  -3.7196152e-01
   8.0555556e-02  -3.7196152e-01
   8.3333333e-02  -3.4500000e-01
   8.6111111e-02  -3.1303848e-01
   8.8888889e-02  -3.2303848e-01
   9.1666667e-02  -3.6000000e-01
   9.4444444e-02  -4.0196152e-01
   9.7222222e-02  -4.0196152e-01
   1.0000000e-01  -3.7000000e-01
   1.0277778e-01  -3.1303848e-01
   1.0555556e-01  -3.1303848e-01
   1.0833333e-01  -3.5000000e-01
   1.1111111e-01  -3.9696152e-01
   1.1388889e-01  -4.1696152e-01
   1.1666667e-01  -3.8500000e-01
   1.1944444e-01  -3.3303848e-01
   1.2222222e-01  -3.1803848e-01
   1.2500000e-01  -3.5000000e-01
   1.2777778e-01  -4.2696152e-01
   1.3055556e-01  -4.4196152e-01
   1.3333333e-01  -3.8500000e-01
   1.3611111e-01  -3.3803848e-01
   1.3888889e-01  -3.2803848e-01
   1.4166667e-01  -4.0500000e-01
   1.4444444e-01  -4.6696152e-01
   1.4722222e-01  -4.7696152e-01
   1.5000000e-01  -3.8500000e-01
   1.5277778e-01  -3.0303848e-01
   1.5555556e-01  -2.9303848e-01
   1.5833333e-01  -3.6000000e-01
   1.6111111e-01  -4.2196152e-01
   1.6388889e-01  -4.4196152e-01
   1.6666667e-01  -3.9500000e-01
   1.6944444e-01  -3.2303848e-01
   1.7222222e-01  -3.0803848e-01
   1.7500000e-01  -3.5500000e-01
   1.7777778e-01  -4.0696152e-01
   1.8055556e-01  -4.0196152e-01
   1.8333333e-01  -3.6000000e-01
   1.8611111e-01  -3.1303848e-01
   1.8888889e-01  -2.9803848e-01
   1.9166667e-01  -3.2500000e-01
   1.9444444e-01  -3.4696152e-01
   1.9722222e-01  -3.5696152e-01
   2.0000000e-01  -3.3500000e-01
   2.0277778e-01  -2.9803848e-01
   2.0555556e-01  -2.9303848e-01
   2.0833333e-01  -3.2000000e-01
   2.1111111e-01  -3.5196152e-01
   2.1388889e-01  -3.3696152e-01
   2.1666667e-01  -2.8500000e-01
   2.1944444e-01  -2.3803848e-01
   2.2222222e-01  -2.2803848e-01
   2.2500000e-01  -2.3000000e-01
   2.2777778e-01  -2.8196152e-01
   2.3055556e-01  -2.9696152e-01
   2.3333333e-01  -2.6000000e-01
   2.3611111e-01  -2.1803848e-01
   2.3888889e-01  -2.0303848e-01
   2.4166667e-01  -2.6000000e-01
   2.4444444e-01  -2.9696152e-01
   2.4722222e-01  -3.2196152e-01
   2.5000000e-01  -2.6500000e-01
   2.5277778e-01  -2.1803848e-01
   2.5555556e-01  -1.9803848e-01
   2.5833333e-01  -2.2000000e-01
   2.6111111e-01  -2.6696152e-01
   2.6388889e-01  -3.0196152e-01
   2.6666667e-01  -2.8000000e-01
   2.6944444e-01  -2.6303848e-01
   2.7222222e-01  -2.7803848e-01
   2.7500000e-01  -3.3000000e-01
   2.7777778e-01  -4.0196152e-01
   2.8055556e-01  -3.9696152e-01
   2.8333333e-01  -3.7500000e-01
   2.8611111e-01  -3.3303848e-01
   2.8888889e-01  -3.2803848e-01
   2.9166667e-01  -3.5000000e-01
   2.9444444e-01  -3.9196152e-01
   2.9722222e-01  -3.8696152e-01
   3.0000000e-01  -3.4000000e-01
   3.0277778e-01  -3.1803848e-01
   3.0555556e-01  -3.3303848e-01
   3.0833333e-01  -3.8000000e-01
   3.1111111e-01  -4.2196152e-01
   3.1388889e-01  -4.0196152e-01
   3.1666667e-01  -3.5500000e-01
   3.1944444e-01  -3.1803848e-01
   3.2222222e-01  -3.2803848e-01
   3.2500000e-01  -3.8500000e-01
   3.2777778e-01  -4.3196152e-01
   3.3055556e-01  -4.4196152e-01
   3.3333333e-01  -3.9000000e-01
   3.3611111e-01  -3.3803848e-01
   3.3888889e-01  -3.3303848e-01
   3.4166667e-01  -3.8000000e-01
   3.4444444e-01  -4.5196152e-01
   3.4722222e-01  -4.5196152e-01
   3.5000000e-01  -4.0000000e-01
   3.5277778e-01  -3.5303848e-01
   3.5555556e-01  -3.9303848e-01
   3.5833333e-01  -4.6500000e-01
   3.6111111e-01  -5.0196152e-01
   3.6388889e-01  -5.0696152e-01
   3.6666667e-01  -4.9000000e-01
   3.6944444e-01  -5.2303848e-01
   3.7222222e-01  -5.7303848e-01
   3.7500000e-01  -6.2000000e-01
   3.7777778e-01  -6.2196152e-01
   3.8055556e-01  -5.3696152e-01
   3.8333333e-01  -3.7500000e-01
   3.8611111e-01  -1.7803848e-01
   3.8888889e-01   4.1961524e-02
   3.9166667e-01   2.7000000e-01
   3.9444444e-01   4.7803848e-01
   3.9722222e-01   6.7803848e-01
   4.0000000e-01   7.8500000e-01
   4.0277778e-01   7.2696152e-01
   4.0555556e-01   4.2196152e-01
   4.0833333e-01   2.0000000e-02
   4.1111111e-01  -3.4696152e-01
   4.1388889e-01  -5.1696152e-01
   4.1666667e-01  -5.1500000e-01
   4.1944444e-01  -4.6303848e-01
   4.2222222e-01  -4.2303848e-01
   4.2500000e-01  -4.3500000e-01
   4.2777778e-01  -4.5696152e-01
   4.3055556e-01  -4.5196152e-01
   4.3333333e-01  -4.0500000e-01
   4.3611111e-01  -3.4803848e-01
   4.3888889e-01  -3.1803848e-01
   4.4166667e-01  -3.5000000e-01
   4.4444444e-01  -3.8696152e-01
   4.4722222e-01  -4.0696152e-01
   4.5000000e-01  -3.6500000e-01
   4.5277778e-01  -3.1803848e-01
   4.5555556e-01  -3.1803848e-01
   4.5833333e-01  -3.7500000e-01
   4.6111111e-01  -4.5196152e-01
   4.6388889e-01  -4.5696152e-01
   4.6666667e-01  -3.8500000e-01
   4.6944444e-01  -3.1803848e-01
   4.7222222e-01  -2.8803848e-01
   4.7500000e-01  -3.4000000e-01
   4.7777778e-01  -3.9196152e-01
   4.8055556e-01  -4.0196152e-01
   4.8333333e-01  -3.4500000e-01
   4.8611111e-01  -3.0803848e-01
   4.8888889e-01  -3.2303848e-01
   4.9166667e-01  -3.7000000e-01
   4.9444444e-01  -3.9196152e-01
   4.9722222e-01  -3.8196152e-01
   5.0000000e-01  -3.5000000e-01
   5.0277778e-01  -2.9803848e-01
   5.0555556e-01  -2.8303848e-01
   5.0833333e-01  -3.3000000e-01
   5.1111111e-01  -3.7696152e-01
   5.1388889e-01  -3.8196152e-01
   5.1666667e-01  -3.4000000e-01
   5.1944444e-01  -2.8303848e-01
   5.2222222e-01  -2.8803848e-01
   5.2500000e-01  -3.6500000e-01
   5.2777778e-01  -4.4196152e-01
   5.3055556e-01  -4.2696152e-01
   5.3333333e-01  -3.5000000e-01
   5.3611111e-01  -2.9303848e-01
   5.3888889e-01  -2.7803848e-01
   5.4166667e-01  -3.1500000e-01
   5.4444444e-01  -3.6196152e-01
   5.4722222e-01  -3.9196152e-01
   5.5000000e-01  -3.7000000e-01
   5.5277778e-01  -3.3303848e-01
   5.5555556e-01  -3.1303848e-01
   5.5833333e-01  -3.6000000e-01
   5.6111111e-01  -4.1196152e-01
   5.6388889e-01  -3.9696152e-01
   5.6666667e-01  -3.1500000e-01
   5.6944444e-01  -2.4803848e-01
   5.7222222e-01  -2.2303848e-01
   5.7500000e-01  -2.8500000e-01
   5.7777778e-01  -3.4196152e-01
   5.8055556e-01  -3.4696152e-01
   5.8333333e-01  -3.1500000e-01
   5.8611111e-01  -2.6803848e-01
   5.8888889e-01  -2.6303848e-01
   5.9166667e-01  -3.0500000e-01
   5.9444444e-01  -3.5196152e-01
   5.9722222e-01  -3.7196152e-01
   6.0000000e-01  -3.2500000e-01
   6.0277778e-01  -2.6303848e-01
   6.0555556e-01  -2.2303848e-01
   6.0833333e-01  -2.7000000e-01
   6.1111111e-01  -3.4196152e-01
   6.1388889e-01  -3.6196152e-01
   6.1666667e-01  -3.0000000e-01
   6.1944444e-01  -2.3803848e-01
   6.2222222e-01  -2.2303848e-01
   6.2500000e-01  -2.7500000e-01
   6.2777778e-01  -3.3196152e-01
   6.3055556e-01  -3.5696152e-01
   6.3333333e-01  -3.4000000e-01
   6.3611111e-01  -2.9803848e-01
   6.3888889e-01  -2.8803848e-01
   6.4166667e-01  -3.3000000e-01
   6.4444444e-01  -3.8696152e-01
   6.4722222e-01  -3.8696152e-01
   6.5000000e-01  -3.3500000e-01
   6.5277778e-01  -2.7303848e-01
   6.5555556e-01  -2.5303848e-01
   6.5833333e-01  -2.9500000e-01
   6.6111111e-01  -3.4696152e-01
   6.6388889e-01  -3.4196152e-01
   6.6666667e-01  -3.0000000e-01
   6.6944444e-01  -2.3303848e-01
   6.7222222e-01  -2.1303848e-01
   6.7500000e-01  -2.5000000e-01
   6.7777778e-01  -2.9696152e-01
   6.8055556e-01  -2.9696152e-01
   6.8333333e-01  -2.3500000e-01
   6.8611111e-01  -1.7803848e-01
   6.8888889e-01  -1.6803848e-01
   6.9166667e-01  -1.8500000e-01
   6.9444444e-01  -2.2196152e-01
   6.9722222e-01  -2.5196152e-01
   7.0000000e-01  -2.0500000e-01
   7.0277778e-01  -1.3303848e-01
   7.0555556e-01  -9.3038476e-02
   7.0833333e-01  -1.2500000e-01
   7.1111111e-01  -1.8696152e-01
   7.1388889e-01  -2.1696152e-01
   7.1666667e-01  -1.8500000e-01
   7.1944444e-01  -1.3803848e-01
   7.2222222e-01  -1.0303848e-01
   7.2500000e-01  -1.1000000e-01
   7.2777778e-01  -1.4196152e-01
   7.3055556e-01  -1.7696152e-01
   7.3333333e-01  -1.3000000e-01
   7.3611111e-01  -7.8038476e-02
   7.3888889e-01  -7.3038476e-02
   7.4166667e-01  -1.2000000e-01
   7.4444444e-01  -1.8196152e-01
   7.4722222e-01  -1.7196152e-01
   7.5000000e-01  -9.5000000e-02
   7.5277778e-01  -2.8038476e-02
   7.5555556e-01  -3.3038476e-02
   7.5833333e-01  -8.0000000e-02
   7.6111111e-01  -1.4196152e-01
   7.6388889e-01  -1.5196152e-01
   7.6666667e-01  -1.3000000e-01
   7.6944444e-01  -9.8038476e-02
   7.7222222e-01  -8.3038476e-02
   7.7500000e-01  -1.1500000e-01
   7.7777778e-01  -1.6696152e-01
   7.8055556e-01  -1.6696152e-01
   7.8333333e-01  -1.4500000e-01
   7.8611111e-01  -8.3038476e-02
   7.8888889e-01  -5.3038476e-02
   7.9166667e-01  -7.5000000e-02
   7.9444444e-01  -1.3696152e-01
   7.9722222e-01  -1.5696152e-01
   8.0000000e-01  -1.3500000e-01
   8.0277778e-01  -9.8038476e-02
   8.0555556e-01  -7.3038476e-02
   8.0833333e-01  -1.0500000e-01
   8.1111111e-01  -1.5196152e-01
   8.1388889e-01  -1.5696152e-01
   8.1666667e-01  -1.2500000e-01
   8.1944444e-01  -8.8038476e-02
   8.2222222e-01  -8.3038476e-02
   8.2500000e-01  -1.0000000e-01
   8.2777778e-01  -1.6696152e-01
   8.3055556e-01  -1.8196152e-01
   8.3333333e-01  -1.4500000e-01
   8.3611111e-01  -7.8038476e-02
   8.3888889e-01  -5.3038476e-02
   8.4166667e-01  -9.0000000e-02
   8.4444444e-01  -1.7196152e-01
   8.4722222e-01  -1.9196152e-01
   8.5000000e-01  -1.5500000e-01
   8.5277778e-01  -1.0303848e-01
   8.5555556e-01  -9.8038476e-02
   8.5833333e-01  -1.4000000e-01
   8.6111111e-01  -1.6696152e-01
   8.6388889e-01  -1.4696152e-01
   8.6666667e-01  -1.2500000e-01
   8.6944444e-01  -9.8038476e-02
   8.7222222e-01  -8.8038476e-02
   8.7500000e-01  -1.2500000e-01
   8.7777778e-01  -1.9196152e-01
   8.8055556e-01  -2.0196152e-01
   8.8333333e-01  -1.3000000e-01
   8.8611111e-01  -4.3038476e-02
   8.8888889e-01  -3.0384758e-03
   8.9166667e-01  -5.0000000e-02
   8.9444444e-01  -1.1696152e-01
   8.9722222e-01  -1.1696152e-01
   9.0000000e-01  -8.0000000e-02
   9.0277778e-01  -2.8038476e-02
   9.0555556e-01  -3.8038476e-02
   9.0833333e-01  -9.0000000e-02
   9.1111111e-01  -1.3196152e-01
   9.1388889e-01  -1.3196152e-01
   9.1666667e-01  -8.0000000e-02
   9.1944444e-01  -4.8038476e-02
   9.2222222e-01  -3.8038476e-02
   9.2500000e-01  -7.5000000e-02
   9.2777778e-01  -9.1961524e-02
   9.3055556e-01  -5.6961524e-02
   9.3333333e-01   1.0000000e-02
   9.3611111e-01   7.1961524e-02
   9.3888889e-01   7.6961524e-02
   9.4166667e-01   4.5000000e-02
   9.4444444e-01  -6.9615242e-03
   9.4722222e-01  -6.9615242e-03
   9.5000000e-01   4.0000000e-02
   9.5277778e-01   9.6961524e-02
   9.5555556e-01   1.0696152e-01
   9.5833333e-01   8.0000000e-02
   9.6111111e-01   2.3038476e-02
   9.6388889e-01  -1.9615242e-03
   9.6666667e-01  -1.0000000e-02
   9.6944444e-01   2.1961524e-02
   9.7222222e-01   1.6961524e-02
   9.7500000e-01  -1.5000000e-02
   9.7777778e-01  -4.1961524e-02
   9.8055556e-01  -1.1961524e-02
   9.8333333e-01   6.5000000e-02
   9.8611111e-01   1.4196152e-01
   9.8888889e-01   1.4196152e-01
   9.9166667e-01   6.5000000e-02
   9.9444444e-01  -1.9615242e-03
   9.9722222e-01  -3.6961524e-02
   1.0000000e+00  -5.0000000e-03
   1.0027778e+00   2.1961524e-02
   1.0055556e+00   6.9615242e-03
   1.0083333e+00  -4.5000000e-02
   1.0111111e+00  -9.6961524e-02
   1.0138889e+00  -1.1196152e-01
   1.0166667e+00  -1.0000000e-01
   1.0194444e+00  -4.3038476e-02
   1.0222222e+00  -1.8038476e-02
   1.0250000e+00  -3.0000000e-02
   1.0277778e+00  -8.6961524e-02
   1.0305556e+00  -1.2696152e-01
   1.0333333e+00  -1.0500000e-01
   1.0361111e+00  -4.3038476e-02
   1.0388889e+00  -3.3038476e-02
   1.0416667e+00  -7.5000000e-02
   1.0444444e+00  -1.5196152e-01
   1.0472222e+00  -1.6696152e-01
   1.0500000e+00  -1.3000000e-01
   1.0527778e+00  -7.3038476e-02
   1.0555556e+00  -4.8038476e-02
   1.0583333e+00  -8.5000000e-02
   1.0611111e+00  -1.3196152e-01
   1.0638889e+00  -1.2196152e-01
   1.0666667e+00  -7.0000000e-02
   1.0694444e+00  -2.3038476e-02
   1.0722222e+00  -3.3038476e-02
   1.0750000e+00  -9.5000000e-02
   1.0777778e+00  -1.4196152e-01
   1.0805556e+00  -1.4196152e-01
   1.0833333e+00  -8.5000000e-02
   1.0861111e+00  -2.3038476e-02
   1.0888889e+00  -1.3038476e-02
   1.0916667e+00  -7.0000000e-02
   1.0944444e+00  -1.6696152e-01
   1.0972222e+00  -2.0696152e-01
   1.1000000e+00  -1.9000000e-01
   1.1027778e+00  -1.5303848e-01
   1.1055556e+00  -1.8803848e-01
   1.1083333e+00  -2.5500000e-01
   1.1111111e+00  -2.8196152e-01
   1.1138889e+00  -1.8196152e-01
   1.1166667e+00  -3.5000000e-02
   1.1194444e+00   1.2696152e-01
   1.1222222e+00   2.6696152e-01
   1.1250000e+00   4.0500000e-01
   1.1277778e+00   6.0803848e-01
   1.1305556e+00   8.0803848e-01
   1.1333333e+00   9.6000000e-01
   1.1361111e+00   9.9696152e-01
   1.1388889e+00   8.6196152e-01
   1.1416667e+00   5.3500000e-01
   1.1444444e+00   1.3303848e-01
   1.1472222e+00  -1.4196152e-01
   1.1500000e+00  -2.3500000e-01
   1.1527778e+00  -1.9303848e-01
   1.1555556e+00  -1.1803848e-01
   1.1583333e+00  -1.0500000e-01
   1.1611111e+00  -1.6196152e-01
   1.1638889e+00  -1.8196152e-01
   1.1666667e+00  -1.4000000e-01
   1.1694444e+00  -8.8038476e-02
   1.1722222e+00  -5.8038476e-02
   1.1750000e+00  -9.0000000e-02
   1.1777778e+00  -1.3196152e-01
   1.1805556e+00  -1.3196152e-01
   1.1833333e+00  -1.1500000e-01
   1.1861111e+00  -8.8038476e-02
   1.1888889e+00  -8.3038476e-02
   1.1916667e+00  -1.1500000e-01
   1.1944444e+00  -1.5696152e-01
   1.1972222e+00  -1.4696152e-01
   1.2000000e+00  -1.1000000e-01
   1.2027778e+00  -6.8038476e-02
   1.2055556e+00  -6.8038476e-02
   1.2083333e+00  -1.2000000e-01
   1.2111111e+00  -1.5696152e-01
   1.2138889e+00  -1.4196152e-01
   1.2166667e+00  -9.5000000e-02
   1.2194444e+00  -5.8038476e-02
   1.2222222e+00  -4.8038476e-02
   1.2250000e+00  -8.5000000e-02
   1.2277778e+00  -1.4196152e-01
   1.2305556e+00  -1.4696152e-01
   1.2333333e+00  -1.1000000e-01
   1.2361111e+00  -7.8038476e-02
   1.2388889e+00  -7.8038476e-02
   1.2416667e+00  -1.1500000e-01
   1.2444444e+00  -1.5196152e-01
   1.2472222e+00  -1.5696152e-01
   1.2500000e+00  -1.1500000e-01
   1.2527778e+00  -7.3038476e-02
   1.2555556e+00  -6.8038476e-02
   1.2583333e+00  -1.2500000e-01
   1.2611111e+00  -1.8196152e-01
   1.2638889e+00  -1.9196152e-01
   1.2666667e+00  -1.4500000e-01
   1.2694444e+00  -8.3038476e-02
   1.2722222e+00  -6.3038476e-02
   1.2750000e+00  -1.0000000e-01
   1.2777778e+00  -1.4696152e-01
   1.2805556e+00  -1.5196152e-01
   1.2833333e+00  -1.1000000e-01
   1.2861111e+00  -6.3038476e-02
   1.2888889e+00  -5.8038476e-02
   1.2916667e+00  -9.0000000e-02
   1.2944444e+00  -1.5696152e-01
   1.2972222e+00  -1.5196152e-01
   1.3000000e+00  -1.1000000e-01
   1.3027778e+00  -5.8038476e-02
   1.3055556e+00  -5.3038476e-02
   1.3083333e+00  -1.0500000e-01
   1.3111111e+00  -1.5196152e-01
   1.3138889e+00  -1.5196152e-01
   1.3166667e+00  -1.1500000e-01
   1.3194444e+00  -6.8038476e-02
   1.3222222e+00  -4.3038476e-02
   1.3250000e+00  -9.5000000e-02
   1.3277778e+00  -1.4196152e-01
   1.3305556e+00  -1.3696152e-01
   1.3333333e+00  -9.5000000e-02
   1.3361111e+00  -4.8038476e-02
   1.3388889e+00  -4.8038476e-02
   1.3416667e+00  -1.0000000e-01
   1.3444444e+00  -1.5196152e-01
   1.3472222e+00  -1.5696152e-01
   1.3500000e+00  -1.2500000e-01
   1.3527778e+00  -7.8038476e-02
   1.3555556e+00  -7.8038476e-02
   1.3583333e+00  -1.2500000e-01
   1.3611111e+00  -1.8696152e-01
   1.3638889e+00  -1.7196152e-01
   1.3666667e+00  -1.3500000e-01
   1.3694444e+00  -8.3038476e-02
   1.3722222e+00  -8.3038476e-02
   1.3750000e+00  -1.2500000e-01
   1.3777778e+00  -1.7696152e-01
   1.3805556e+00  -1.8696152e-01
   1.3833333e+00  -1.5000000e-01
   1.3861111e+00  -1.0803848e-01
   1.3888889e+00  -7.8038476e-02
   1.3916667e+00  -1.0000000e-01
   1.3944444e+00  -1.5196152e-01
   1.3972222e+00  -1.5696152e-01
   1.4000000e+00  -1.0500000e-01
   1.4027778e+00  -5.3038476e-02
   1.4055556e+00  -4.3038476e-02
   1.4083333e+00  -1.1000000e-01
   1.4111111e+00  -1.8196152e-01
   1.4138889e+00  -1.8196152e-01
   1.4166667e+00  -1.3500000e-01
   1.4194444e+00  -7.3038476e-02
   1.4222222e+00  -8.3038476e-02
   1.4250000e+00  -1.0500000e-01
   1.4277778e+00  -1.5696152e-01
   1.4305556e+00  -1.6196152e-01
   1.4333333e+00  -1.3000000e-01
   1.4361111e+00  -8.3038476e-02
   1.4388889e+00  -6.3038476e-02
   1.4416667e+00  -1.0500000e-01
   1.4444444e+00  -1.3196152e-01
   1.4472222e+00  -1.3196152e-01
   1.4500000e+00  -8.0000000e-02
   1.4527778e+00  -1.3038476e-02
   1.4555556e+00   2.1961524e-02
   1.4583333e+00  -3.0000000e-02
   1.4611111e+00  -7.6961524e-02
   1.4638889e+00  -8.6961524e-02
   1.4666667e+00  -4.0000000e-02
   1.4694444e+00   2.1961524e-02
   1.4722222e+00   5.6961524e-02
   1.4750000e+00   1.5000000e-02
   1.4777778e+00  -6.1961524e-02
   1.4805556e+00  -7.1961524e-02
   1.4833333e+00  -2.5000000e-02
   1.4861111e+00   1.1961524e-02
   1.4888889e+00   6.9615242e-03
   1.4916667e+00  -5.5000000e-02
   1.4944444e+00  -1.0196152e-01
   1.4972222e+00  -8.1961524e-02
   1.5000000e+00  -3.0000000e-02
   1.5027778e+00   3.1961524e-02
   1.5055556e+00   2.6961524e-02
   1.5083333e+00  -2.5000000e-02
   1.5111111e+00  -5.6961524e-02
   1.5138889e+00  -7.6961524e-02
   1.5166667e+00  -4.5000000e-02
   1.5194444e+00  -1.3038476e-02
   1.5222222e+00  -8.0384758e-03
   1.5250000e+00  -5.0000000e-02
   1.5277778e+00  -9.1961524e-02
   1.5305556e+00  -1.0196152e-01
   1.5333333e+00  -3.5000000e-02
   1.5361111e+00   1.1961524e-02
   1.5388889e+00   2.1961524e-02
   1.5416667e+00  -2.0000000e-02
   1.5444444e+00  -8.1961524e-02
   1.5472222e+00  -8.6961524e-02
   1.5500000e+00  -5.0000000e-02
   1.5527778e+00  -1.3038476e-02
   1.5555556e+00  -3.0384758e-03
   1.5583333e+00  -5.0000000e-02
   1.5611111e+00  -1.2196152e-01
   1.5638889e+00  -1.1196152e-01
   1.5666667e+00  -8.0000000e-02
   1.5694444e+00  -3.8038476e-02
   1.5722222e+00  -3.3038476e-02
   1.5750000e+00  -8.0000000e-02
   1.5777778e+00  -1.2196152e-01
   1.5805556e+00  -1.3196152e-01
   1.5833333e+00  -8.0000000e-02
   1.5861111e+00  -4.3038476e-02
   1.5888889e+00  -2.3038476e-02
   1.5916667e+00  -6.5000000e-02
   1.5944444e+00  -1.2196152e-01
   1.5972222e+00  -1.2696152e-01
   1.6000000e+00  -9.5000000e-02
   1.6027778e+00  -4.8038476e-02
   1.6055556e+00  -5.3038476e-02
   1.6083333e+00  -1.0500000e-01
   1.6111111e+00  -1.5696152e-01
   1.6138889e+00  -1.6196152e-01
   1.6166667e+00  -1.2000000e-01
   1.6194444e+00  -7.8038476e-02
   1.6222222e+00  -6.8038476e-02
   1.6250000e+00  -1.1500000e-01
   1.6277778e+00  -1.6196152e-01
   1.6305556e+00  -1.5696152e-01
   1.6333333e+00  -1.0000000e-01
   1.6361111e+00  -5.3038476e-02
   1.6388889e+00  -5.3038476e-02
   1.6416667e+00  -1.1000000e-01
   1.6444444e+00  -1.6696152e-01
   1.6472222e+00  -1.6696152e-01
   1.6500000e+00  -1.3000000e-01
   1.6527778e+00  -8.3038476e-02
   1.6555556e+00  -8.3038476e-02
   1.6583333e+00  -1.2500000e-01
   1.6611111e+00  -1.6696152e-01
   1.6638889e+00  -1.4696152e-01
   1.6666667e+00  -9.5000000e-02
   1.6694444e+00  -4.8038476e-02
   1.6722222e+00  -4.3038476e-02
   1.6750000e+00  -8.0000000e-02
   1.6777778e+00  -1.1696152e-01
   1.6805556e+00  -1.2196152e-01
   1.6833333e+00  -9.0000000e-02
   1.6861111e+00  -3.3038476e-02
   1.6888889e+00  -1.8038476e-02
   1.6916667e+00  -6.5000000e-02
   1.6944444e+00  -1.0196152e-01
   1.6972222e+00  -1.1196152e-01
   1.7000000e+00  -5.5000000e-02
   1.7027778e+00   6.9615242e-03
   1.7055556e+00   6.9615242e-03
   1.7083333e+00  -4.0000000e-02
   1.7111111e+00  -9.1961524e-02
   1.7138889e+00  -1.0696152e-01
   1.7166667e+00  -6.0000000e-02
   1.7194444e+00  -1.8038476e-02
   1.7222222e+00  -3.0384758e-03
   1.7250000e+00  -5.5000000e-02
   1.7277778e+00  -1.1696152e-01
   1.7305556e+00  -1.0696152e-01
   1.7333333e+00  -5.5000000e-02
   1.7361111e+00   2.1961524e-02
   1.7388889e+00   3.6961524e-02
   1.7416667e+00  -3.0000000e-02
   1.7444444e+00  -1.0196152e-01
   1.7472222e+00  -1.3696152e-01
   1.7500000e+00  -1.2000000e-01
   1.7527778e+00  -6.8038476e-02
   1.7555556e+00  -8.3038476e-02
   1.7583333e+00  -1.2500000e-01
   1.7611111e+00  -1.8696152e-01
   1.7638889e+00  -2.0196152e-01
   1.7666667e+00  -1.7500000e-01
   1.7694444e+00  -1.2803848e-01
   1.7722222e+00  -1.1803848e-01
   1.7750000e+00  -1.8000000e-01
   1.7777778e+00  -2.3696152e-01
   1.7805556e+00  -2.6196152e-01
   1.7833333e+00  -2.2000000e-01
   1.7861111e+00  -1.6303848e-01
   1.7888889e+00  -1.6303848e-01
   1.7916667e+00  -2.1500000e-01
   1.7944444e+00  -2.6696152e-01
   1.7972222e+00  -2.8696152e-01
   1.8000000e+00  -2.2500000e-01
   1.8027778e+00  -1.8303848e-01
   1.8055556e+00  -1.8303848e-01
   1.8083333e+00  -2.3000000e-01
   1.8111111e+00  -2.8696152e-01
   1.8138889e+00  -2.7696152e-01
   1.8166667e+00  -2.3500000e-01
   1.8194444e+00  -1.7803848e-01
   1.8222222e+00  -1.9803848e-01
   1.8250000e+00  -2.4000000e-01
   1.8277778e+00  -2.8696152e-01
   1.8305556e+00  -2.9696152e-01
   1.8333333e+00  -2.5000000e-01
   1.8361111e+00  -1.8803848e-01
   1.8388889e+00  -1.9803848e-01
   1.8416667e+00  -2.4000000e-01
   1.8444444e+00  -3.0196152e-01
   1.8472222e+00  -3.4196152e-01
   1.8500000e+00  -3.3500000e-01
   1.8527778e+00  -3.1303848e-01
   1.8555556e+00  -3.1803848e-01
   1.8583333e+00  -3.9500000e-01
   1.8611111e+00  -4.8196152e-01
   1.8638889e+00  -5.1196152e-01
   1.8666667e+00  -4.4000000e-01
   1.8694444e+00  -2.8803848e-01
   1.8722222e+00  -1.5303848e-01
   1.8750000e+00  -5.5000000e-02
   1.8777778e+00   5.3038476e-02
   1.8805556e+00   2.6803848e-01
   1.8833333e+00   5.6000000e-01
   1.8861111e+00   8.0196152e-01
   1.8888889e+00   9.4696152e-01
   1.8916667e+00   9.2000000e-01
   1.8944444e+00   7.2803848e-01
   1.8972222e+00   4.4303848e-01
   1.9000000e+00   1.3000000e-01
   1.9027778e+00  -1.4803848e-01
   1.9055556e+00  -3.4803848e-01
   1.9083333e+00  -4.6000000e-01
   1.9111111e+00  -5.2696152e-01
   1.9138889e+00  -5.1196152e-01
   1.9166667e+00  -4.4000000e-01
   1.9194444e+00  -3.5803848e-01
   1.9222222e+00  -3.0303848e-01
   1.9250000e+00  -3.2500000e-01
   1.9277778e+00  -3.8196152e-01
   1.9305556e+00  -3.8696152e-01
   1.9333333e+00  -3.4000000e-01
   1.9361111e+00  -2.8803848e-01
   1.9388889e+00  -2.7803848e-01
   1.9416667e+00  -3.2500000e-01
   1.9444444e+00  -3.7696152e-01
   1.9472222e+00  -3.8696152e-01
   1.9500000e+00  -3.5500000e-01
   1.9527778e+00  -3.0303848e-01
   1.9555556e+00  -2.9303848e-01
   1.9583333e+00  -3.4000000e-01
   1.9611111e+00  -3.9696152e-01
   1.9638889e+00  -4.1196152e-01
   1.9666667e+00  -3.7000000e-01
   1.9694444e+00  -3.1803848e-01
   1.9722222e+00  -3.0803848e-01
   1.9750000e+00  -3.4500000e-01
   1.9777778e+00  -4.0696152e-01
   1.9805556e+00  -4.2696152e-01
   1.9833333e+00  -3.7500000e-01
   1.9861111e+00  -3.2303848e-01
   1.9888889e+00  -3.0803848e-01
   1.9916667e+00  -3.6000000e-01
   1.9944444e+00  -4.1696152e-01
   1.9972222e+00  -4.1196152e-01
   2.0000000e+00  -3.6500000e-01
   2.0027778e+00  -3.2803848e-01
   2.0055556e+00  -3.1303848e-01
   2.0083333e+00  -3.5000000e-01
   2.0111111e+00  -3.9196152e-01
   2.0138889e+00  -4.2196152e-01
   2.0166667e+00  -3.6500000e-01
   2.0194444e+00  -3.0803848e-01
   2.0222222e+00  -3.0803848e-01
   2.0250000e+00  -3.6000000e-01
   2.0277778e+00  -4.0696152e-01
   2.0305556e+00  -4.2696152e-01
   2.0333333e+00  -3.8000000e-01
   2.0361111e+00  -3.2803848e-01
   2.0388889e+00  -3.2303848e-01
   2.0416667e+00  -3.6000000e-01
   2.0444444e+00  -4.2696152e-01
   2.0472222e+00  -4.3196152e-01
   2.0500000e+00  -3.8500000e-01
   2.0527778e+00  -3.3803848e-01
   2.0555556e+00  -3.3303848e-01
   2.0583333e+00  -3.8000000e-01
   2.0611111e+00  -4.3196152e-01
   2.0638889e+00  -4.4196152e-01
   2.0666667e+00  -4.0000000e-01
   2.0694444e+00  -3.4803848e-01
   2.0722222e+00  -3.3303848e-01
   2.0750000e+00  -3.8000000e-01
   2.0777778e+00  -4.3196152e-01
   2.0805556e+00  -4.4196152e-01
   2.0833333e+00  -3.9000000e-01
   2.0861111e+00  -3.3803848e-01
   2.0888889e+00  -3.2803848e-01
   2.0916667e+00  -3.8000000e-01
   2.0944444e+00  -4.3196152e-01
   2.0972222e+00  -4.3196152e-01
   2.1000000e+00  -3.8500000e-01
   2.1027778e+00  -3.3803848e-01
   2.1055556e+00  -3.4303848e-01
   2.1083333e+00  -3.8000000e-01
   2.1111111e+00  -4.5196152e-01
   2.1138889e+00  -4.5196152e-01
   2.1166667e+00  -4.1000000e-01
   2.1194444e+00  -3.5303848e-01
   2.1222222e+00  -3.5303848e-01
   2.1250000e+00  -3.9500000e-01
   2.1277778e+00  -4.4696152e-01
   2.1305556e+00  -4.6196152e-01
   2.1333333e+00  -4.2000000e-01
   2.1361111e+00  -3.6303848e-01
   2.1388889e+00  -3.6303848e-01
   2.1416667e+00  -4.0000000e-01
   2.1444444e+00  -4.5696152e-01
   2.1472222e+00  -4.6196152e-01
   2.1500000e+00  -4.1000000e-01
   2.1527778e+00  -3.8303848e-01
   2.1555556e+00  -3.7803848e-01
   2.1583333e+00  -4.1000000e-01
   2.1611111e+00  -4.6196152e-01
   2.1638889e+00  -4.5696152e-01
   2.1666667e+00  -4.1500000e-01
   2.1694444e+00  -3.7803848e-01
   2.1722222e+00  -3.6303848e-01
   2.1750000e+00  -4.0500000e-01
   2.1777778e+00  -4.6196152e-01
   2.1805556e+00  -4.5696152e-01
   2.1833333e+00  -4.1500000e-01
   2.1861111e+00  -3.5303848e-01
   2.1888889e+00  -3.4803848e-01
   2.1916667e+00  -3.9000000e-01
   2.1944444e+00  -4.3696152e-01
   2.1972222e+00  -4.4196152e-01
   2.2000000e+00  -3.8000000e-01
   2.2027778e+00  -3.3303848e-01
   2.2055556e+00  -3.0803848e-01
   2.2083333e+00  -3.3500000e-01
   2.2111111e+00  -3.8696152e-01
   2.2138889e+00  -3.8696152e-01
   2.2166667e+00  -3.3000000e-01
   2.2194444e+00  -2.7803848e-01
   2.2222222e+00  -2.5803848e-01
   2.2250000e+00  -3.0500000e-01
   2.2277778e+00  -3.5196152e-01
   2.2305556e+00  -3.4696152e-01
   2.2333333e+00  -3.0000000e-01
   2.2361111e+00  -2.5303848e-01
   2.2388889e+00  -2.3803848e-01
   2.2416667e+00  -2.8000000e-01
   2.2444444e+00  -3.4696152e-01
   2.2472222e+00  -3.4696152e-01
   2.2500000e+00  -3.0000000e-01
   2.2527778e+00  -2.5303848e-01
   2.2555556e+00  -2.3803848e-01
   2.2583333e+00  -2.7000000e-01
   2.2611111e+00  -3.2696152e-01
   2.2638889e+00  -3.3196152e-01
   2.2666667e+00  -2.9500000e-01
   2.2694444e+00  -2.4803848e-01
   2.2722222e+00  -2.3803848e-01
   2.2750000e+00  -2.8500000e-01
   2.2777778e+00  -3.3696152e-01
   2.2805556e+00  -3.3696152e-01
   2.2833333e+00  -2.9500000e-01
   2.2861111e+00  -2.5303848e-01
   2.2888889e+00  -2.5303848e-01
   2.2916667e+00  -2.9500000e-01
   2.2944444e+00  -3.5196152e-01
   2.2972222e+00  -3.5196152e-01
   2.3000000e+00  -3.1000000e-01
   2.3027778e+00  -2.5803848e-01
   2.3055556e+00  -2.5303848e-01
   2.3083333e+00  -3.0500000e-01
   2.3111111e+00  -3.5196152e-01
   2.3138889e+00  -3.4696152e-01
   2.3166667e+00  -3.1000000e-01
   2.3194444e+00  -2.5803848e-01
   2.3222222e+00  -2.6303848e-01
   2.3250000e+00  -3.0500000e-01
   2.3277778e+00  -3.5196152e-01
   2.3305556e+00  -3.6196152e-01
   2.3333333e+00  -3.2000000e-01
   2.3361111e+00  -2.8803848e-01
   2.3388889e+00  -2.8303848e-01
   2.3416667e+00  -3.3000000e-01
   2.3444444e+00  -3.8196152e-01
   2.3472222e+00  -3.9196152e-01
   2.3500000e+00  -3.4000000e-01
   2.3527778e+00  -2.9803848e-01
   2.3555556e+00  -2.9803848e-01
   2.3583333e+00  -3.3500000e-01
   2.3611111e+00  -3.9196152e-01
   2.3638889e+00  -4.0196152e-01
   2.3666667e+00  -3.5000000e-01
   2.3694444e+00  -3.0803848e-01
   2.3722222e+00  -2.9303848e-01
   2.3750000e+00  -3.3000000e-01
   2.3777778e+00  -3.9196152e-01
   2.3805556e+00  -4.0196152e-01
   2.3833333e+00  -3.5500000e-01
   2.3861111e+00  -3.0803848e-01
   2.3888889e+00  -3.0303848e-01
   2.3916667e+00  -3.5500000e-01
   2.3944444e+00  -4.0696152e-01
   2.3972222e+00  -4.0696152e-01
   2.4000000e+00  -3.7500000e-01
   2.4027778e+00  -3.2803848e-01
   2.4055556e+00  -3.0803848e-01
   2.4083333e+00  -3.4500000e-01
   2.4111111e+00  -3.8696152e-01
   2.4138889e+00  -3.8196152e-01
   2.4166667e+00  -3.3000000e-01
   2.4194444e+00  -2.7803848e-01
   2.4222222e+00  -2.6803848e-01
   2.4250000e+00  -3.0500000e-01
   2.4277778e+00  -3.4196152e-01
   2.4305556e+00  -3.2696152e-01
   2.4333333e+00  -2.9000000e-01
   2.4361111e+00  -2.3803848e-01
   2.4388889e+00  -2.1803848e-01
   2.4416667e+00  -2.6500000e-01
   2.4444444e+00  -3.0696152e-01
   2.4472222e+00  -2.9696152e-01
   2.4500000e+00  -2.5500000e-01
   2.4527778e+00  -1.9803848e-01
   2.4555556e+00  -1.9303848e-01
   2.4583333e+00  -2.3500000e-01
   2.4611111e+00  -2.9696152e-01
   2.4638889e+00  -3.0696152e-01
   2.4666667e+00  -2.6500000e-01
   2.4694444e+00  -2.2303848e-01
   2.4722222e+00  -2.0803848e-01
   2.4750000e+00  -2.5000000e-01
   2.4777778e+00  -3.0196152e-01
   2.4805556e+00  -3.0196152e-01
   2.4833333e+00  -2.5000000e-01
   2.4861111e+00  -1.9303848e-01
   2.4888889e+00  -1.6303848e-01
   2.4916667e+00  -2.1500000e-01
   2.4944444e+00  -2.8696152e-01
   2.4972222e+00  -3.2196152e-01
   2.5000000e+00  -2.9000000e-01
   2.5027778e+00  -2.6303848e-01
   2.5055556e+00  -2.5803848e-01
   2.5083333e+00  -3.3500000e-01
   2.5111111e+00  -4.0196152e-01
   2.5138889e+00  -4.1196152e-01
   2.5166667e+00  -3.7500000e-01
   2.5194444e+00  -3.3303848e-01
   2.5222222e+00  -3.3803848e-01
   2.5250000e+00  -3.8000000e-01
   2.5277778e+00  -4.2696152e-01
   2.5305556e+00  -4.3196152e-01
   2.5333333e+00  -3.9500000e-01
   2.5361111e+00  -3.4803848e-01
   2.5388889e+00  -3.3803848e-01
   2.5416667e+00  -3.8000000e-01
   2.5444444e+00  -4.4196152e-01
   2.5472222e+00  -4.5196152e-01
   2.5500000e+00  -4.0000000e-01
   2.5527778e+00  -3.5303848e-01
   2.5555556e+00  -3.4803848e-01
   2.5583333e+00  -3.9500000e-01
   2.5611111e+00  -4.4196152e-01
   2.5638889e+00  -4.4696152e-01
   2.5666667e+00  -4.0000000e-01
   2.5694444e+00  -3.5303848e-01
   2.5722222e+00  -3.4303848e-01
   2.5750000e+00  -3.8500000e-01
   2.5777778e+00  -4.4196152e-01
   2.5805556e+00  -4.4696152e-01
   2.5833333e+00  -4.0500000e-01
   2.5861111e+00  -3.6803848e-01
   2.5888889e+00  -3.7303848e-01
   2.5916667e+00  -4.4500000e-01
   2.5944444e+00  -5.1696152e-01
   2.5972222e+00  -5.6196152e-01
   2.6000000e+00  -5.3500000e-01
   2.6027778e+00  -5.1803848e-01
   2.6055556e+00  -5.4803848e-01
   2.6083333e+00  -5.9500000e-01
   2.6111111e+00  -5.8196152e-01
   2.6138889e+00  -4.9196152e-01
   2.6166667e+00  -3.1500000e-01
   2.6194444e+00  -1.2803848e-01
   2.6222222e+00   6.6961524e-02
   2.6250000e+00   2.7500000e-01
   2.6277778e+00   4.6303848e-01
   2.6305556e+00   6.1803848e-01
   2.6333333e+00   6.9500000e-01
   2.6361111e+00   6.2196152e-01
   2.6388889e+00   3.3696152e-01
   2.6416667e+00  -6.5000000e-02
   2.6444444e+00  -4.2196152e-01
   2.6472222e+00  -5.8196152e-01
   2.6500000e+00  -5.7500000e-01
   2.6527778e+00  -4.8303848e-01
   2.6555556e+00  -4.1803848e-01
   2.6583333e+00  -4.3000000e-01
   2.6611111e+00  -4.7696152e-01
   2.6638889e+00  -4.9196152e-01
   2.6666667e+00  -4.5000000e-01
   2.6694444e+00  -3.9303848e-01
   2.6722222e+00  -3.7803848e-01
   2.6750000e+00  -4.2500000e-01
   2.6777778e+00  -4.7696152e-01
   2.6805556e+00  -4.9196152e-01
   2.6833333e+00  -4.6500000e-01
   2.6861111e+00  -4.1803848e-01
   2.6888889e+00  -3.9303848e-01
   2.6916667e+00  -4.4000000e-01
   2.6944444e+00  -4.9696152e-01
   2.6972222e+00  -5.1196152e-01
   2.7000000e+00  -4.5500000e-01
   2.7027778e+00  -3.9303848e-01
   2.7055556e+00  -3.8803848e-01
   2.7083333e+00  -4.4000000e-01
   2.7111111e+00  -4.9196152e-01
   2.7138889e+00  -4.9196152e-01
   2.7166667e+00  -4.5500000e-01
   2.7194444e+00  -4.0303848e-01
   2.7222222e+00  -3.8803848e-01
   2.7250000e+00  -4.3500000e-01
   2.7277778e+00  -4.8196152e-01
   2.7305556e+00  -4.9196152e-01
   2.7333333e+00  -4.5000000e-01
   2.7361111e+00  -3.8803848e-01
   2.7388889e+00  -3.7803848e-01
   2.7416667e+00  -4.2500000e-01
   2.7444444e+00  -4.7196152e-01
   2.7472222e+00  -4.8196152e-01
   2.7500000e+00  -4.4000000e-01
   2.7527778e+00  -3.8803848e-01
   2.7555556e+00  -3.9303848e-01
   2.7583333e+00  -4.3000000e-01
   2.7611111e+00  -4.8696152e-01
   2.7638889e+00  -4.8696152e-01
   2.7666667e+00  -4.5000000e-01
   2.7694444e+00  -3.9303848e-01
   2.7722222e+00  -3.9303848e-01
   2.7750000e+00  -4.4500000e-01
   2.7777778e+00  -4.9196152e-01
   2.7805556e+00  -4.9696152e-01
   2.7833333e+00  -4.4000000e-01
   2.7861111e+00  -4.0803848e-01
   2.7888889e+00  -3.8303848e-01
   2.7916667e+00  -4.2500000e-01
   2.7944444e+00  -4.6696152e-01
   2.7972222e+00  -4.8196152e-01
   2.8000000e+00  -4.3500000e-01
   2.8027778e+00  -3.8803848e-01
   2.8055556e+00  -3.7303848e-01
   2.8083333e+00  -4.1500000e-01
   2.8111111e+00  -4.7196152e-01
   2.8138889e+00  -4.7196152e-01
   2.8166667e+00  -4.4500000e-01
   2.8194444e+00  -3.8803848e-01
   2.8222222e+00  -3.8303848e-01
   2.8250000e+00  -4.3000000e-01
   2.8277778e+00  -4.7196152e-01
   2.8305556e+00  -4.8196152e-01
   2.8333333e+00  -4.4000000e-01
   2.8361111e+00  -3.8803848e-01
   2.8388889e+00  -3.7803848e-01
   2.8416667e+00  -4.2000000e-01
   2.8444444e+00  -4.8196152e-01
   2.8472222e+00  -4.8696152e-01
   2.8500000e+00  -4.3500000e-01
   2.8527778e+00  -3.9303848e-01
   2.8555556e+00  -3.8803848e-01
   2.8583333e+00  -4.3000000e-01
   2.8611111e+00  -4.7196152e-01
   2.8638889e+00  -4.7696152e-01
   2.8666667e+00  -4.3500000e-01
   2.8694444e+00  -3.9303848e-01
   2.8722222e+00  -3.8303848e-01
   2.8750000e+00  -4.3000000e-01
   2.8777778e+00  -4.8196152e-01
   2.8805556e+00  -4.9196152e-01
   2.8833333e+00  -4.4500000e-01
   2.8861111e+00  -4.0803848e-01
   2.8888889e+00  -3.8803848e-01
   2.8916667e+00  -4.4500000e-01
   2.8944444e+00  -5.0196152e-01
   2.8972222e+00  -5.0196152e-01
   2.9000000e+00  -4.6000000e-01
   2.9027778e+00  -4.0803848e-01
   2.9055556e+00  -4.0303848e-01
   2.9083333e+00  -4.4000000e-01
   2.9111111e+00  -4.8696152e-01
   2.9138889e+00  -4.9196152e-01
   2.9166667e+00  -4.4500000e-01
   2.9194444e+00  -3.9803848e-01
   2.9222222e+00  -3.7803848e-01
   2.9250000e+00  -4.1500000e-01
   2.9277778e+00  -4.5696152e-01
   2.9305556e+00  -4.4196152e-01
   2.9333333e+00  -3.8500000e-01
   2.9361111e+00  -3.2303848e-01
   2.9388889e+00  -3.1303848e-01
   2.9416667e+00  -3.6000000e-01
   2.9444444e+00  -4.0196152e-01
   2.9472222e+00  -3.9196152e-01
   2.9500000e+00  -3.4500000e-01
   2.9527778e+00  -2.9803848e-01
   2.9555556e+00  -2.8303848e-01
   2.9583333e+00  -3.2000000e-01
   2.9611111e+00  -3.7696152e-01
   2.9638889e+00  -3.7696152e-01
   2.9666667e+00  -3.2000000e-01
   2.9694444e+00  -2.7803848e-01
   2.9722222e+00  -2.6803848e-01
   2.9750000e+00  -3.2000000e-01
   2.9777778e+00  -3.6196152e-01
   2.9805556e+00  -3.7196152e-01
   2.9833333e+00  -3.2000000e-01
   2.9861111e+00  -2.6803848e-01
   2.9888889e+00  -2.7803848e-01
   2.9916667e+00  -3.1000000e-01
   2.9944444e+00  -3.6196152e-01
   2.9972222e+00  -3.6696152e-01
   3.0000000e+00  -3.2000000e-01
   3.0027778e+00  -2.7303848e-01
   3.0055556e+00  -2.6303848e-01
   3.0083333e+00  -3.0000000e-01
   3.0111111e+00  -3.5196152e-01
   3.0138889e+00  -3.5196152e-01
   3.0166667e+00  -3.1500000e-01
   3.0194444e+00  -2.5803848e-01
   3.0222222e+00  -2.5303848e-01
   3.0250000e+00  -2.9500000e-01
   3.0277778e+00  -3.4696152e-01
   3.0305556e+00  -3.5696152e-01
   3.0333333e+00  -3.1500000e-01
   3.0361111e+00  -2.6303848e-01
   3.0388889e+00  -2.6803848e-01
   3.0416667e+00  -3.2000000e-01
   3.0444444e+00  -3.5696152e-01
   3.0472222e+00  -3.6696152e-01
   3.0500000e+00  -3.1500000e-01
   3.0527778e+00  -2.7803848e-01
   3.0555556e+00  -2.7803848e-01
   3.0583333e+00  -3.2000000e-01
   3.0611111e+00  -3.6696152e-01
   3.0638889e+00  -3.8696152e-01
   3.0666667e+00  -3.4500000e-01
   3.0694444e+00  -3.0303848e-01
   3.0722222e+00  -2.8803848e-01
   3.0750000e+00  -3.2000000e-01
   3.0777778e+00  -3.7696152e-01
   3.0805556e+00  -3.7696152e-01
   3.0833333e+00  -3.3500000e-01
   3.0861111e+00  -2.9303848e-01
   3.0888889e+00  -2.8303848e-01
   3.0916667e+00  -3.3500000e-01
   3.0944444e+00  -3.8696152e-01
   3.0972222e+00  -3.9196152e-01
   3.1000000e+00  -3.5000000e-01
   3.1027778e+00  -3.1303848e-01
   3.1055556e+00  -2.8803848e-01
   3.1083333e+00  -3.5000000e-01
   3.1111111e+00  -3.9196152e-01
   3.1138889e+00  -4.0196152e-01
   3.1166667e+00  -3.5500000e-01
   3.1194444e+00  -3.1303848e-01
   3.1222222e+00  -2.9803848e-01
   3.1250000e+00  -3.5000000e-01
   3.1277778e+00  -4.0196152e-01
   3.1305556e+00  -4.0696152e-01
   3.1333333e+00  -3.6000000e-01
   3.1361111e+00  -3.2803848e-01
   3.1388889e+00  -3.0803848e-01
   3.1416667e+00  -3.3000000e-01
   3.1444444e+00  -3.9196152e-01
   3.1472222e+00  -3.7696152e-01
   3.1500000e+00  -3.3500000e-01
   3.1527778e+00  -2.7803848e-01
   3.1555556e+00  -2.6303848e-01
   3.1583333e+00  -3.1500000e-01
   3.1611111e+00  -3.5196152e-01
   3.1638889e+00  -3.5196152e-01
   3.1666667e+00  -2.9000000e-01
   3.1694444e+00  -2.4303848e-01
   3.1722222e+00  -2.2803848e-01
   3.1750000e+00  -2.7500000e-01
   3.1777778e+00  -3.2196152e-01
   3.1805556e+00  -3.2196152e-01
   3.1833333e+00  -2.8000000e-01
   3.1861111e+00  -2.2303848e-01
   3.1888889e+00  -2.1803848e-01
   3.1916667e+00  -2.5500000e-01
   3.1944444e+00  -3.0696152e-01
   3.1972222e+00  -2.9196152e-01
   3.2000000e+00  -2.6000000e-01
   3.2027778e+00  -2.1303848e-01
   3.2055556e+00  -2.0803848e-01
   3.2083333e+00  -2.6000000e-01
   3.2111111e+00  -3.1196152e-01
   3.2138889e+00  -3.1196152e-01
   3.2166667e+00  -2.7500000e-01
   3.2194444e+00  -2.0803848e-01
   3.2222222e+00  -1.9803848e-01
   3.2250000e+00  -2.5000000e-01
   3.2277778e+00  -2.7696152e-01
   3.2305556e+00  -2.6196152e-01
   3.2333333e+00  -2.2500000e-01
   3.2361111e+00  -2.0303848e-01
   3.2388889e+00  -2.4303848e-01
   3.2416667e+00  -3.0000000e-01
   3.2444444e+00  -3.5196152e-01
   3.2472222e+00  -3.5696152e-01
   3.2500000e+00  -3.5000000e-01
   3.2527778e+00  -3.0803848e-01
   3.2555556e+00  -3.1303848e-01
   3.2583333e+00  -3.7000000e-01
   3.2611111e+00  -4.3196152e-01
   3.2638889e+00  -4.3696152e-01
   3.2666667e+00  -3.9500000e-01
   3.2694444e+00  -3.4803848e-01
   3.2722222e+00  -3.3303848e-01
   3.2750000e+00  -3.9000000e-01
   3.2777778e+00  -4.3696152e-01
   3.2805556e+00  -4.4196152e-01
   3.2833333e+00  -4.0000000e-01
   3.2861111e+00  -3.4803848e-01
   3.2888889e+00  -3.3803848e-01
   3.2916667e+00  -3.8500000e-01
   3.2944444e+00  -4.3696152e-01
   3.2972222e+00  -4.4196152e-01
   3.3000000e+00  -4.0000000e-01
   3.3027778e+00  -3.5303848e-01
   3.3055556e+00  -3.5803848e-01
   3.3083333e+00  -4.0000000e-01
   3.3111111e+00  -4.4696152e-01
   3.3138889e+00  -4.5196152e-01
   3.3166667e+00  -4.2500000e-01
   3.3194444e+00  -4.0803848e-01
   3.3222222e+00  -4.3303848e-01
   3.3250000e+00  -5.1000000e-01
   3.3277778e+00  -5.7696152e-01
   3.3305556e+00  -6.1696152e-01
   3.3333333e+00  -6.2500000e-01
   3.3361111e+00  -5.8803848e-01
   3.3388889e+00  -5.2803848e-01
   3.3416667e+00  -4.8000000e-01
   3.3444444e+00  -4.4196152e-01
   3.3472222e+00  -3.7196152e-01
   3.3500000e+00  -2.3500000e-01
   3.3527778e+00  -4.3038476e-02
   3.3555556e+00   1.6196152e-01
   3.3583333e+00   3.5000000e-01
   3.3611111e+00   4.9303848e-01
   3.3638889e+00   6.1303848e-01
   3.3666667e+00   7.2000000e-01
   3.3694444e+00   6.8696152e-01
   3.3722222e+00   4.4696152e-01
   3.3750000e+00   5.0000000e-02
   3.3777778e+00  -3.2196152e-01
   3.3805556e+00  -5.5196152e-01
   3.3833333e+00  -5.8000000e-01
   3.3861111e+00  -5.1303848e-01
   3.3888889e+00  -4.4303848e-01
   3.3916667e+00  -4.4500000e-01
   3.3944444e+00  -4.9696152e-01
   3.3972222e+00  -5.0696152e-01
   3.4000000e+00  -4.6000000e-01
   3.4027778e+00  -4.1303848e-01
   3.4055556e+00  -3.9303848e-01
   3.4083333e+00  -4.3500000e-01
   3.4111111e+00  -4.9196152e-01
   3.4138889e+00  -5.0696152e-01
   3.4166667e+00  -4.5500000e-01
   3.4194444e+00  -4.0303848e-01
   3.4222222e+00  -3.9303848e-01
   3.4250000e+00  -4.3500000e-01
   3.4277778e+00  -4.8696152e-01
   3.4305556e+00  -4.8696152e-01
   3.4333333e+00  -4.5000000e-01
   3.4361111e+00  -4.0803848e-01
   3.4388889e+00  -4.0803848e-01
   3.4416667e+00  -4.5500000e-01
   3.4444444e+00  -4.9696152e-01
   3.4472222e+00  -4.9196152e-01
   3.4500000e+00  -4.5500000e-01
   3.4527778e+00  -4.0303848e-01
   3.4555556e+00  -3.9303848e-01
   3.4583333e+00  -4.4000000e-01
   3.4611111e+00  -5.0196152e-01
   3.4638889e+00  -4.9196152e-01
   3.4666667e+00  -4.6000000e-01
   3.4694444e+00  -4.0803848e-01
   3.4722222e+00  -3.9803848e-01
   3.4750000e+00  -4.5000000e-01
   3.4777778e+00  -4.9696152e-01
   3.4805556e+00  -5.0196152e-01
   3.4833333e+00  -4.4500000e-01
   3.4861111e+00  -4.0303848e-01
   3.4888889e+00  -3.8303848e-01
   3.4916667e+00  -4.3500000e-01
   3.4944444e+00  -4.8696152e-01
   3.4972222e+00  -4.9196152e-01
   3.5000000e+00  -4.5000000e-01
   3.5027778e+00  -4.0303848e-01
   3.5055556e+00  -3.9303848e-01
   3.5083333e+00  -4.4000000e-01
   3.5111111e+00  -4.9696152e-01
   3.5138889e+00  -4.9196152e-01
   3.5166667e+00  -4.6500000e-01
   3.5194444e+00  -4.1803848e-01
   3.5222222e+00  -3.8803848e-01
   3.5250000e+00  -4.4000000e-01
   3.5277778e+00  -4.9196152e-01
   3.5305556e+00  -5.0196152e-01
   3.5333333e+00  -4.4500000e-01
   3.5361111e+00  -3.8803848e-01
   3.5388889e+00  -3.7803848e-01
   3.5416667e+00  -4.3500000e-01
   3.5444444e+00  -4.7696152e-01
   3.5472222e+00  -4.8696152e-01
   3.5500000e+00  -4.4000000e-01
   3.5527778e+00  -3.9803848e-01
   3.5555556e+00  -3.8803848e-01
   3.5583333e+00  -4.3500000e-01
   3.5611111e+00  -4.8696152e-01
   3.5638889e+00  -4.8196152e-01
   3.5666667e+00  -4.5000000e-01
   3.5694444e+00  -4.1303848e-01
   3.5722222e+00  -4.0803848e-01
   3.5750000e+00  -4.5500000e-01
   3.5777778e+00  -4.8696152e-01
   3.5805556e+00  -5.0696152e-01
   3.5833333e+00  -4.5000000e-01
   3.5861111e+00  -4.1303848e-01
   3.5888889e+00  -3.9803848e-01
   3.5916667e+00  -4.5500000e-01
   3.5944444e+00  -5.0196152e-01
   3.5972222e+00  -5.1196152e-01
   3.6000000e+00  -4.6500000e-01
   3.6027778e+00  -4.1303848e-01
   3.6055556e+00  -4.2303848e-01
   3.6083333e+00  -4.6000000e-01
   3.6111111e+00  -5.0196152e-01
   3.6138889e+00  -5.1196152e-01
   3.6166667e+00  -4.7500000e-01
   3.6194444e+00  -4.4303848e-01
   3.6222222e+00  -4.2303848e-01
   3.6250000e+00  -4.5500000e-01
   3.6277778e+00  -5.0196152e-01
   3.6305556e+00  -5.0196152e-01
   3.6333333e+00  -4.6000000e-01
   3.6361111e+00  -4.1303848e-01
   3.6388889e+00  -4.0803848e-01
   3.6416667e+00  -4.4500000e-01
   3.6444444e+00  -5.0696152e-01
   3.6472222e+00  -5.0196152e-01
   3.6500000e+00  -4.5000000e-01
   3.6527778e+00  -3.8803848e-01
   3.6555556e+00  -3.7303848e-01
   3.6583333e+00  -4.2000000e-01
   3.6611111e+00  -4.4696152e-01
   3.6638889e+00  -4.3696152e-01
   3.6666667e+00  -3.7000000e-01
   3.6694444e+00  -3.3303848e-01
   3.6722222e+00  -3.2803848e-01
   3.6750000e+00  -3.7000000e-01
   3.6777778e+00  -4.2196152e-01
   3.6805556e+00  -4.0696152e-01
   3.6833333e+00  -3.6000000e-01
   3.6861111e+00  -3.1303848e-01
   3.6888889e+00  -2.9303848e-01
   3.6916667e+00  -3.4500000e-01
   3.6944444e+00  -4.0196152e-01
   3.6972222e+00  -4.0196152e-01
   3.7000000e+00  -3.5000000e-01
   3.7027778e+00  -3.0803848e-01
   3.7055556e+00  -3.0803848e-01
   3.7083333e+00  -3.4000000e-01
   3.7111111e+00  -3.8696152e-01
   3.7138889e+00  -3.9696152e-01
   3.7166667e+00  -3.4500000e-01
   3.7194444e+00  -3.0803848e-01
   3.7222222e+00  -2.8803848e-01
   3.7250000e+00  -3.3500000e-01
   3.7277778e+00  -3.6696152e-01
   3.7305556e+00  -3.8196152e-01
   3.7333333e+00  -3.4500000e-01
   3.7361111e+00  -3.1303848e-01
   3.7388889e+00  -2.9803848e-01
   3.7416667e+00  -3.5000000e-01
   3.7444444e+00  -4.0196152e-01
   3.7472222e+00  -4.0696152e-01
   3.7500000e+00  -3.6000000e-01
   3.7527778e+00  -3.1803848e-01
   3.7555556e+00  -3.1303848e-01
   3.7583333e+00  -3.5000000e-01
   3.7611111e+00  -4.1696152e-01
   3.7638889e+00  -4.1196152e-01
   3.7666667e+00  -3.8000000e-01
   3.7694444e+00  -3.2803848e-01
   3.7722222e+00  -3.2303848e-01
   3.7750000e+00  -3.7000000e-01
   3.7777778e+00  -4.1196152e-01
   3.7805556e+00  -4.2696152e-01
   3.7833333e+00  -3.7500000e-01
   3.7861111e+00  -3.3303848e-01
   3.7888889e+00  -3.1803848e-01
   3.7916667e+00  -3.7000000e-01
   3.7944444e+00  -4.0696152e-01
   3.7972222e+00  -4.2696152e-01
   3.8000000e+00  -3.7000000e-01
   3.8027778e+00  -3.2303848e-01
   3.8055556e+00  -3.1803848e-01
   3.8083333e+00  -3.7000000e-01
   3.8111111e+00  -4.2196152e-01
   3.8138889e+00  -4.3196152e-01
   3.8166667e+00  -3.8500000e-01
   3.8194444e+00  -3.4303848e-01
   3.8222222e+00  -3.3803848e-01
   3.8250000e+00  -3.8000000e-01
   3.8277778e+00  -4.3696152e-01
   3.8305556e+00  -4.3696152e-01
   3.8333333e+00  -3.9500000e-01
   3.8361111e+00  -3.5303848e-01
   3.8388889e+00  -3.3303848e-01
   3.8416667e+00  -3.8500000e-01
   3.8444444e+00  -4.3196152e-01
   3.8472222e+00  -4.4196152e-01
   3.8500000e+00  -3.9000000e-01
   3.8527778e+00  -3.4303848e-01
   3.8555556e+00  -3.3303848e-01
   3.8583333e+00  -3.6500000e-01
   3.8611111e+00  -4.0696152e-01
   3.8638889e+00  -4.0696152e-01
   3.8666667e+00  -3.4500000e-01
   3.8694444e+00  -3.0303848e-01
   3.8722222e+00  -2.7803848e-01
   3.8750000e+00  -3.1500000e-01
   3.8777778e+00  -3.6196152e-01
   3.8805556e+00  -3.6196152e-01
   3.8833333e+00  -3.1000000e-01
   3.8861111e+00  -2.5303848e-01
   3.8888889e+00  -2.5803848e-01
   3.8916667e+00  -2.8500000e-01
   3.8944444e+00  -3.2696152e-01
   3.8972222e+00  -3.2196152e-01
   3.9000000e+00  -2.7500000e-01
   3.9027778e+00  -2.3303848e-01
   3.9055556e+00  -2.1303848e-01
   3.9083333e+00  -2.7000000e-01
   3.9111111e+00  -3.2696152e-01
   3.9138889e+00  -3.3196152e-01
   3.9166667e+00  -3.0000000e-01
   3.9194444e+00  -2.3803848e-01
   3.9222222e+00  -2.3803848e-01
   3.9250000e+00  -2.7000000e-01
   3.9277778e+00  -3.1196152e-01
   3.9305556e+00  -2.9696152e-01
   3.9333333e+00  -2.3000000e-01
   3.9361111e+00  -2.0803848e-01
   3.9388889e+00  -2.4803848e-01
   3.9416667e+00  -3.1000000e-01
   3.9444444e+00  -3.6196152e-01
   3.9472222e+00  -3.6196152e-01
   3.9500000e+00  -3.1500000e-01
   3.9527778e+00  -2.8803848e-01
   3.9555556e+00  -2.9803848e-01
   3.9583333e+00  -3.6000000e-01
   3.9611111e+00  -4.1696152e-01
   3.9638889e+00  -4.1696152e-01
   3.9666667e+00  -3.9000000e-01
   3.9694444e+00  -3.5303848e-01
   3.9722222e+00  -3.5303848e-01
   3.9750000e+00  -4.0500000e-01
   3.9777778e+00  -4.5196152e-01
   3.9805556e+00  -4.5196152e-01
   3.9833333e+00  -4.2000000e-01
   3.9861111e+00  -3.7303848e-01
   3.9888889e+00  -3.6303848e-01
   3.9916667e+00  -4.1500000e-01
   3.9944444e+00  -4.5696152e-01
   3.9972222e+00  -4.7196152e-01
   4.0000000e+00  -4.3500000e-01
   4.0027778e+00  -3.8803848e-01
   4.0055556e+00  -3.7803848e-01
   4.0083333e+00  -4.3000000e-01
   4.0111111e+00  -4.8196152e-01
   4.0138889e+00  -4.8696152e-01
   4.0166667e+00  -4.4000000e-01
   4.0194444e+00  -3.9303848e-01
   4.0222222e+00  -3.8303848e-01
   4.0250000e+00  -4.2500000e-01
   4.0277778e+00  -4.7696152e-01
   4.0305556e+00  -5.0196152e-01
   4.0333333e+00  -4.7000000e-01
   4.0361111e+00  -4.6303848e-01
   4.0388889e+00  -4.7303848e-01
   4.0416667e+00  -5.4000000e-01
   4.0444444e+00  -6.5196152e-01
   4.0472222e+00  -6.8696152e-01
   4.0500000e+00  -6.1500000e-01
   4.0527778e+00  -4.6803848e-01
   4.0555556e+00  -3.5303848e-01
   4.0583333e+00  -2.6000000e-01
   4.0611111e+00  -1.3196152e-01
   4.0638889e+00   1.1803848e-01
   4.0666667e+00   4.3000000e-01
   4.0694444e+00   6.7196152e-01
   4.0722222e+00   7.4696152e-01
   4.0750000e+00   5.7000000e-01
   4.0777778e+00   1.9803848e-01
   4.0805556e+00  -1.8696152e-01
   4.0833333e+00  -4.3500000e-01
   4.0861111e+00  -5.4303848e-01
   4.0888889e+00  -5.5803848e-01
   4.0916667e+00  -5.8000000e-01
   4.0944444e+00  -5.7696152e-01
   4.0972222e+00  -5.5196152e-01
   4.1000000e+00  -4.9500000e-01
   4.1027778e+00  -4.4803848e-01
   4.1055556e+00  -4.3303848e-01
   4.1083333e+00  -4.7500000e-01
   4.1111111e+00  -5.0696152e-01
   4.1138889e+00  -5.1196152e-01
   4.1166667e+00  -4.7000000e-01
   4.1194444e+00  -4.3303848e-01
   4.1222222e+00  -4.3303848e-01
   4.1250000e+00  -4.8000000e-01
   4.1277778e+00  -5.2696152e-01
   4.1305556e+00  -5.2696152e-01
   4.1333333e+00  -4.9000000e-01
   4.1361111e+00  -4.4303848e-01
   4.1388889e+00  -4.3803848e-01
   4.1416667e+00  -4.8500000e-01
   4.1444444e+00  -5.2696152e-01
   4.1472222e+00  -5.4196152e-01
   4.1500000e+00  -4.8000000e-01
   4.1527778e+00  -4.4303848e-01
   4.1555556e+00  -4.3303848e-01
   4.1583333e+00  -4.8000000e-01
   4.1611111e+00  -5.3196152e-01
   4.1638889e+00  -5.3196152e-01
   4.1666667e+00  -4.9000000e-01
   4.1694444e+00  -4.5303848e-01
   4.1722222e+00  -4.4803848e-01
   4.1750000e+00  -4.8500000e-01
   4.1777778e+00  -5.3196152e-01
   4.1805556e+00  -5.3696152e-01
   4.1833333e+00  -4.8500000e-01
   4.1861111e+00  -4.4303848e-01
   4.1888889e+00  -4.3303848e-01
   4.1916667e+00  -4.8500000e-01
   4.1944444e+00  -5.2696152e-01
   4.1972222e+00  -5.3696152e-01
   4.2000000e+00  -4.9000000e-01
   4.2027778e+00  -4.5303848e-01
   4.2055556e+00  -4.4303848e-01
   4.2083333e+00  -4.9000000e-01
   4.2111111e+00  -5.3196152e-01
   4.2138889e+00  -5.2696152e-01
   4.2166667e+00  -4.8000000e-01
   4.2194444e+00  -4.3803848e-01
   4.2222222e+00  -4.3303848e-01
   4.2250000e+00  -4.6500000e-01
   4.2277778e+00  -5.1196152e-01
   4.2305556e+00  -5.3196152e-01
   4.2333333e+00  -4.8500000e-01
   4.2361111e+00  -4.4303848e-01
   4.2388889e+00  -4.3803848e-01
   4.2416667e+00  -4.8000000e-01
   4.2444444e+00  -5.3196152e-01
   4.2472222e+00  -5.2696152e-01
   4.2500000e+00  -4.8000000e-01
   4.2527778e+00  -4.3803848e-01
   4.2555556e+00  -4.2303848e-01
   4.2583333e+00  -4.6000000e-01
   4.2611111e+00  -5.1696152e-01
   4.2638889e+00  -5.1196152e-01
   4.2666667e+00  -4.7000000e-01
   4.2694444e+00  -4.3303848e-01
   4.2722222e+00  -4.3303848e-01
   4.2750000e+00  -4.8000000e-01
   4.2777778e+00  -5.3696152e-01
   4.2805556e+00  -5.4196152e-01
   4.2833333e+00  -4.9000000e-01
   4.2861111e+00  -4.4803848e-01
   4.2888889e+00  -4.3303848e-01
   4.2916667e+00  -4.9000000e-01
   4.2944444e+00  -5.5196152e-01
   4.2972222e+00  -5.4696152e-01
   4.3000000e+00  -5.1000000e-01
   4.3027778e+00  -4.5803848e-01
   4.3055556e+00  -4.5803848e-01
   4.3083333e+00  -5.1000000e-01
   4.3111111e+00  -5.5696152e-01
   4.3138889e+00  -5.6196152e-01
   4.3166667e+00  -5.0500000e-01
   4.3194444e+00  -4.6803848e-01
   4.3222222e+00  -4.7303848e-01
   4.3250000e+00  -5.1500000e-01
   4.3277778e+00  -5.6196152e-01
   4.3305556e+00  -5.7696152e-01
   4.3333333e+00  -5.2000000e-01
   4.3361111e+00  -4.6803848e-01
   4.3388889e+00  -4.7303848e-01
   4.3416667e+00  -5.0000000e-01
   4.3444444e+00  -5.3196152e-01
   4.3472222e+00  -5.2696152e-01
   4.3500000e+00  -4.7000000e-01
   4.3527778e+00  -4.0803848e-01
   4.3555556e+00  -3.8803848e-01
   4.3583333e+00  -4.3000000e-01
   4.3611111e+00  -4.7196152e-01
   4.3638889e+00  -4.7196152e-01
   4.3666667e+00  -4.2000000e-01
   4.3694444e+00  -3.6303848e-01
   4.3722222e+00  -3.5803848e-01
   4.3750000e+00  -3.9500000e-01
   4.3777778e+00  -4.4196152e-01
   4.3805556e+00  -4.3696152e-01
   4.3833333e+00  -3.9000000e-01
   4.3861111e+00  -3.4803848e-01
   4.3888889e+00  -3.4303848e-01
   4.3916667e+00  -3.7500000e-01
   4.3944444e+00  -4.2696152e-01
   4.3972222e+00  -4.3196152e-01
   4.4000000e+00  -3.8000000e-01
   4.4027778e+00  -3.4303848e-01
   4.4055556e+00  -3.3803848e-01
   4.4083333e+00  -3.7500000e-01
   4.4111111e+00  -4.2196152e-01
   4.4138889e+00  -4.2196152e-01
   4.4166667e+00  -3.7500000e-01
   4.4194444e+00  -3.3803848e-01
   4.4222222e+00  -3.3803848e-01
   4.4250000e+00  -3.9000000e-01
   4.4277778e+00  -4.4696152e-01
   4.4305556e+00  -4.3696152e-01
   4.4333333e+00  -3.9000000e-01
   4.4361111e+00  -3.4803848e-01
   4.4388889e+00  -3.4303848e-01
   4.4416667e+00  -3.8500000e-01
   4.4444444e+00  -4.2696152e-01
   4.4472222e+00  -4.3196152e-01
   4.4500000e+00  -3.9500000e-01
   4.4527778e+00  -3.4803848e-01
   4.4555556e+00  -3.3803848e-01
   4.4583333e+00  -3.8500000e-01
   4.4611111e+00  -4.4196152e-01
   4.4638889e+00  -4.4196152e-01
   4.4666667e+00  -4.1000000e-01
   4.4694444e+00  -3.6803848e-01
   4.4722222e+00  -3.5303848e-01
   4.4750000e+00  -3.9500000e-01
   4.4777778e+00  -4.3696152e-01
   4.4805556e+00  -4.4196152e-01
   4.4833333e+00  -4.0000000e-01
   4.4861111e+00  -3.5303848e-01
   4.4888889e+00  -3.4803848e-01
   4.4916667e+00  -4.0000000e-01
   4.4944444e+00  -4.3696152e-01
   4.4972222e+00  -4.3696152e-01
   4.5000000e+00  -4.0500000e-01
   4.5027778e+00  -3.5803848e-01
   4.5055556e+00  -3.5303848e-01
   4.5083333e+00  -4.0500000e-01
   4.5111111e+00  -4.4696152e-01
   4.5138889e+00  -4.6196152e-01
   4.5166667e+00  -4.1000000e-01
   4.5194444e+00  -3.7803848e-01
   4.5222222e+00  -3.6803848e-01
   4.5250000e+00  -4.1500000e-01
   4.5277778e+00  -4.6696152e-01
   4.5305556e+00  -4.5696152e-01
   4.5333333e+00  -4.2000000e-01
   4.5361111e+00  -3.7803848e-01
   4.5388889e+00  -3.7303848e-01
   4.5416667e+00  -4.0500000e-01
   4.5444444e+00  -4.6196152e-01
   4.5472222e+00  -4.5196152e-01
   4.5500000e+00  -3.9000000e-01
   4.5527778e+00  -3.4303848e-01
   4.5555556e+00  -3.2803848e-01
   4.5583333e+00  -3.6000000e-01
   4.5611111e+00  -4.0696152e-01
   4.5638889e+00  -3.9196152e-01
   4.5666667e+00  -3.5000000e-01
   4.5694444e+00  -2.9803848e-01
   4.5722222e+00  -2.7803848e-01
   4.5750000e+00  -3.3500000e-01
   4.5777778e+00  -3.7196152e-01
   4.5805556e+00  -3.6196152e-01
   4.5833333e+00  -3.1000000e-01
   4.5861111e+00  -2.6803848e-01
   4.5888889e+00  -2.5803848e-01
   4.5916667e+00  -2.9500000e-01
   4.5944444e+00  -3.4196152e-01
   4.5972222e+00  -3.4196152e-01
   4.6000000e+00  -2.9500000e-01
   4.6027778e+00  -2.5803848e-01
   4.6055556e+00  -2.6303848e-01
   4.6083333e+00  -3.1000000e-01
   4.6111111e+00  -3.5196152e-01
   4.6138889e+00  -3.5196152e-01
   4.6166667e+00  -3.1000000e-01
   4.6194444e+00  -2.6303848e-01
   4.6222222e+00  -2.5303848e-01
   4.6250000e+00  -2.8000000e-01
   4.6277778e+00  -3.3196152e-01
   4.6305556e+00  -3.1196152e-01
   4.6333333e+00  -2.6000000e-01
   4.6361111e+00  -2.0803848e-01
   4.6388889e+00  -2.3303848e-01
   4.6416667e+00  -2.8500000e-01
   4.6444444e+00  -3.6696152e-01
   4.6472222e+00  -3.7696152e-01
   4.6500000e+00  -3.4500000e-01
   4.6527778e+00  -3.1303848e-01
   4.6555556e+00  -3.1803848e-01
   4.6583333e+00  -3.8000000e-01
   4.6611111e+00  -4.3696152e-01
   4.6638889e+00  -4.4696152e-01
   4.6666667e+00  -4.0500000e-01
   4.6694444e+00  -3.7303848e-01
   4.6722222e+00  -3.6303848e-01
   4.6750000e+00  -4.1500000e-01
   4.6777778e+00  -4.6696152e-01
   4.6805556e+00  -4.7196152e-01
   4.6833333e+00  -4.3000000e-01
   4.6861111e+00  -3.8803848e-01
   4.6888889e+00  -3.8803848e-01
   4.6916667e+00  -4.2000000e-01
   4.6944444e+00  -4.9196152e-01
   4.6972222e+00  -4.8696152e-01
   4.7000000e+00  -4.3500000e-01
   4.7027778e+00  -4.0303848e-01
   4.7055556e+00  -3.9303848e-01
   4.7083333e+00  -4.4500000e-01
   4.7111111e+00  -4.7696152e-01
   4.7138889e+00  -4.8196152e-01
   4.7166667e+00  -4.3000000e-01
   4.7194444e+00  -3.8803848e-01
   4.7222222e+00  -3.8303848e-01
   4.7250000e+00  -4.3500000e-01
   4.7277778e+00  -5.0196152e-01
   4.7305556e+00  -5.3696152e-01
   4.7333333e+00  -5.2000000e-01
   4.7361111e+00  -4.9803848e-01
   4.7388889e+00  -5.3303848e-01
   4.7416667e+00  -6.1000000e-01
   4.7444444e+00  -6.3696152e-01
   4.7472222e+00  -5.5696152e-01
   4.7500000e+00  -3.8500000e-01
   4.7527778e+00  -1.8303848e-01
   4.7555556e+00   1.6961524e-02
   4.7583333e+00   2.3000000e-01
   4.7611111e+00   4.5303848e-01
   4.7638889e+00   6.6303848e-01
   4.7666667e+00   7.8500000e-01
   4.7694444e+00   7.2196152e-01
   4.7722222e+00   4.1696152e-01
   4.7750000e+00  -3.0000000e-02
   4.7777778e+00  -3.9696152e-01
   4.7805556e+00  -5.6696152e-01
   4.7833333e+00  -5.8500000e-01
   4.7861111e+00  -5.0803848e-01
   4.7888889e+00  -4.6803848e-01
   4.7916667e+00  -4.7500000e-01
   4.7944444e+00  -5.0696152e-01
   4.7972222e+00  -5.1696152e-01
   4.8000000e+00  -4.6500000e-01
   4.8027778e+00  -4.1803848e-01
   4.8055556e+00  -4.1803848e-01
   4.8083333e+00  -4.6000000e-01
   4.8111111e+00  -5.1196152e-01
   4.8138889e+00  -5.1696152e-01
   4.8166667e+00  -4.8000000e-01
   4.8194444e+00  -4.3303848e-01
   4.8222222e+00  -4.1803848e-01
   4.8250000e+00  -4.6500000e-01
   4.8277778e+00  -5.1196152e-01
   4.8305556e+00  -5.1696152e-01
   4.8333333e+00  -4.6500000e-01
   4.8361111e+00  -4.1803848e-01
   4.8388889e+00  -4.1803848e-01
   4.8416667e+00  -4.6500000e-01
   4.8444444e+00  -5.1696152e-01
   4.8472222e+00  -5.1196152e-01
   4.8500000e+00  -4.7000000e-01
   4.8527778e+00  -4.2803848e-01
   4.8555556e+00  -4.1303848e-01
   4.8583333e+00  -4.5500000e-01
   4.8611111e+00  -4.9196152e-01
   4.8638889e+00  -4.9696152e-01
   4.8666667e+00  -4.6000000e-01
   4.8694444e+00  -4.1303848e-01
   4.8722222e+00  -4.0803848e-01
   4.8750000e+00  -4.5000000e-01
   4.8777778e+00  -5.0196152e-01
   4.8805556e+00  -5.0196152e-01
   4.8833333e+00  -4.5500000e-01
   4.8861111e+00  -4.1803848e-01
   4.8888889e+00  -4.1803848e-01
   4.8916667e+00  -4.6000000e-01
   4.8944444e+00  -5.1196152e-01
   4.8972222e+00  -5.0196152e-01
   4.9000000e+00  -4.5500000e-01
   4.9027778e+00  -4.1303848e-01
   4.9055556e+00  -4.0303848e-01
   4.9083333e+00  -4.4500000e-01
   4.9111111e+00  -4.9696152e-01
   4.9138889e+00  -4.9696152e-01
   4.9166667e+00  -4.4500000e-01
   4.9194444e+00  -4.0303848e-01
   4.9222222e+00  -3.9303848e-01
   4.9250000e+00  -4.4500000e-01
   4.9277778e+00  -4.9196152e-01
   4.9305556e+00  -4.9696152e-01
   4.9333333e+00  -4.6000000e-01
   4.9361111e+00  -4.0803848e-01
   4.9388889e+00  -3.9803848e-01
   4.9416667e+00  -4.4000000e-01
   4.9444444e+00  -4.9196152e-01
   4.9472222e+00  -4.9696152e-01
   4.9500000e+00  -4.4000000e-01
   4.9527778e+00  -3.9303848e-01
   4.9555556e+00  -3.8303848e-01
   4.9583333e+00  -4.2500000e-01
   4.9611111e+00  -4.8696152e-01
   4.9638889e+00  -4.8696152e-01
   4.9666667e+00  -4.4000000e-01
   4.9694444e+00  -3.9803848e-01
   4.9722222e+00  -3.9303848e-01
   4.9750000e+00  -4.4000000e-01
   4.9777778e+00  -4.9196152e-01
   4.9805556e+00  -5.0696152e-01
   4.9833333e+00  -4.6500000e-01
   4.9861111e+00  -4.2803848e-01
   4.9888889e+00  -4.1803848e-01
   4.9916667e+00  -4.6500000e-01
   4.9944444e+00  -5.2196152e-01
   4.9972222e+00  -5.3196152e-01
   5.0000000e+00  -4.8500000e-01
   5.0027778e+00  -4.3303848e-01
   5.0055556e+00  -4.3803848e-01
   5.0083333e+00  -4.7000000e-01
   5.0111111e+00  -5.1696152e-01
   5.0138889e+00  -5.1696152e-01
   5.0166667e+00  -4.7000000e-01
   5.0194444e+00  -4.2303848e-01
   5.0222222e+00  -4.0803848e-01
   5.0250000e+00  -4.6500000e-01
   5.0277778e+00  -5.0196152e-01
   5.0305556e+00  -5.0696152e-01
   5.0333333e+00  -4.5000000e-01
   5.0361111e+00  -3.9303848e-01
   5.0388889e+00  -3.8303848e-01
   5.0416667e+00  -4.1000000e-01
   5.0444444e+00  -4.4696152e-01
   5.0472222e+00  -4.3196152e-01
   5.0500000e+00  -3.8000000e-01
   5.0527778e+00  -3.1303848e-01
   5.0555556e+00  -2.9303848e-01
   5.0583333e+00  -3.3500000e-01
   5.0611111e+00  -3.6696152e-01
   5.0638889e+00  -3.7196152e-01
   5.0666667e+00  -3.1500000e-01
   5.0694444e+00  -2.7803848e-01
   5.0722222e+00  -2.6303848e-01
   5.0750000e+00  -3.0000000e-01
   5.0777778e+00  -3.4696152e-01
   5.0805556e+00  -3.4196152e-01
   5.0833333e+00  -2.9500000e-01
   5.0861111e+00  -2.5303848e-01
   5.0888889e+00  -2.5303848e-01
   5.0916667e+00  -3.0000000e-01
   5.0944444e+00  -3.3196152e-01
   5.0972222e+00  -3.3696152e-01
   5.1000000e+00  -2.9000000e-01
   5.1027778e+00  -2.4303848e-01
   5.1055556e+00  -2.3303848e-01
   5.1083333e+00  -2.7500000e-01
   5.1111111e+00  -3.1696152e-01
   5.1138889e+00  -3.2696152e-01
   5.1166667e+00  -2.8000000e-01
   5.1194444e+00  -2.4303848e-01
   5.1222222e+00  -2.2803848e-01
   5.1250000e+00  -2.8500000e-01
   5.1277778e+00  -3.4196152e-01
   5.1305556e+00  -3.4196152e-01
   5.1333333e+00  -2.9500000e-01
   5.1361111e+00  -2.5303848e-01
   5.1388889e+00  -2.3803848e-01
   5.1416667e+00  -2.8500000e-01
   5.1444444e+00  -3.3696152e-01
   5.1472222e+00  -3.3696152e-01
   5.1500000e+00  -2.9500000e-01
   5.1527778e+00  -2.5303848e-01
   5.1555556e+00  -2.4303848e-01
   5.1583333e+00  -2.8500000e-01
   5.1611111e+00  -3.3196152e-01
   5.1638889e+00  -3.3196152e-01
   5.1666667e+00  -3.1000000e-01
   5.1694444e+00  -2.5803848e-01
   5.1722222e+00  -2.4803848e-01
   5.1750000e+00  -2.9000000e-01
   5.1777778e+00  -3.4196152e-01
   5.1805556e+00  -3.5196152e-01
   5.1833333e+00  -3.1000000e-01
   5.1861111e+00  -2.6803848e-01
   5.1888889e+00  -2.5803848e-01
   5.1916667e+00  -3.1500000e-01
   5.1944444e+00  -3.6196152e-01
   5.1972222e+00  -3.6196152e-01
   5.2000000e+00  -3.2000000e-01
   5.2027778e+00  -2.7803848e-01
   5.2055556e+00  -2.7303848e-01
   5.2083333e+00  -3.2000000e-01
   5.2111111e+00  -3.6196152e-01
   5.2138889e+00  -3.7696152e-01
   5.2166667e+00  -3.2000000e-01
   5.2194444e+00  -2.7803848e-01
   5.2222222e+00  -2.6803848e-01
   5.2250000e+00  -3.2000000e-01
   5.2277778e+00  -3.5696152e-01
   5.2305556e+00  -3.6696152e-01
   5.2333333e+00  -3.0500000e-01
   5.2361111e+00  -2.6303848e-01
   5.2388889e+00  -2.6303848e-01
   5.2416667e+00  -2.9500000e-01
   5.2444444e+00  -3.2196152e-01
   5.2472222e+00  -3.2196152e-01
   5.2500000e+00  -2.6000000e-01
   5.2527778e+00  -2.1303848e-01
   5.2555556e+00  -2.0803848e-01
   5.2583333e+00  -2.5000000e-01
   5.2611111e+00  -2.8696152e-01
   5.2638889e+00  -2.8696152e-01
   5.2666667e+00  -2.4000000e-01
   5.2694444e+00  -1.9303848e-01
   5.2722222e+00  -1.8803848e-01
   5.2750000e+00  -2.1500000e-01
   5.2777778e+00  -2.5196152e-01
   5.2805556e+00  -2.4696152e-01
   5.2833333e+00  -2.0000000e-01
   5.2861111e+00  -1.5803848e-01
   5.2888889e+00  -1.4303848e-01
   5.2916667e+00  -1.9500000e-01
   5.2944444e+00  -2.5196152e-01
   5.2972222e+00  -2.6196152e-01
   5.3000000e+00  -2.2000000e-01
   5.3027778e+00  -1.5803848e-01
   5.3055556e+00  -1.4803848e-01
   5.3083333e+00  -1.9500000e-01
   5.3111111e+00  -2.4196152e-01
   5.3138889e+00  -2.2696152e-01
   5.3166667e+00  -1.6000000e-01
   5.3194444e+00  -1.1303848e-01
   5.3222222e+00  -1.4303848e-01
   5.3250000e+00  -2.2500000e-01
   5.3277778e+00  -2.8196152e-01
   5.3305556e+00  -3.0696152e-01
   5.3333333e+00  -2.7500000e-01
   5.3361111e+00  -2.3303848e-01
   5.3388889e+00  -2.4803848e-01
   5.3416667e+00  -3.1000000e-01
   5.3444444e+00  -3.6696152e-01
   5.3472222e+00  -3.7196152e-01
   5.3500000e+00  -3.3000000e-01
   5.3527778e+00  -2.9303848e-01
   5.3555556e+00  -2.7803848e-01
   5.3583333e+00  -3.2500000e-01
   5.3611111e+00  -3.7196152e-01
   5.3638889e+00  -3.7696152e-01
   5.3666667e+00  -3.4500000e-01
   5.3694444e+00  -2.9803848e-01
   5.3722222e+00  -2.8803848e-01
   5.3750000e+00  -3.4000000e-01
   5.3777778e+00  -3.8196152e-01
   5.3805556e+00  -3.8696152e-01
   5.3833333e+00  -3.3500000e-01
   5.3861111e+00  -2.9303848e-01
   5.3888889e+00  -2.9303848e-01
   5.3916667e+00  -3.4500000e-01
   5.3944444e+00  -3.8196152e-01
   5.3972222e+00  -3.8696152e-01
   5.4000000e+00  -3.4500000e-01
   5.4027778e+00  -3.0303848e-01
   5.4055556e+00  -2.9303848e-01
   5.4083333e+00  -3.2500000e-01
   5.4111111e+00  -3.8196152e-01
   5.4138889e+00  -3.8696152e-01
   5.4166667e+00  -3.4000000e-01
   5.4194444e+00  -3.0803848e-01
   5.4222222e+00  -3.3303848e-01
   5.4250000e+00  -4.2000000e-01
   5.4277778e+00  -4.7696152e-01
   5.4305556e+00  -5.1196152e-01
   5.4333333e+00  -5.0500000e-01
   5.4361111e+00  -5.0303848e-01
   5.4388889e+00  -5.0803848e-01
   5.4416667e+00  -5.0000000e-01
   5.4444444e+00  -4.4696152e-01
   5.4472222e+00  -3.2196152e-01
   5.4500000e+00  -1.4500000e-01
   5.4527778e+00   8.6961524e-02
   5.4555556e+00   3.5196152e-01
   5.4583333e+00   5.6000000e-01
   5.4611111e+00   6.8303848e-01
   5.4638889e+00   7.4303848e-01
   5.4666667e+00   7.2500000e-01
   5.4694444e+00   5.4196152e-01
   5.4722222e+00   2.0696152e-01
   5.4750000e+00  -1.6000000e-01
   5.4777778e+00  -4.5196152e-01
   5.4805556e+00  -5.6196152e-01
   5.4833333e+00  -5.1500000e-01
   5.4861111e+00  -4.0803848e-01
   5.4888889e+00  -3.5303848e-01
   5.4916667e+00  -3.9000000e-01
   5.4944444e+00  -4.2696152e-01
   5.4972222e+00  -4.3196152e-01
   5.5000000e+00  -3.9000000e-01
   5.5027778e+00  -3.4303848e-01
   5.5055556e+00  -3.3803848e-01
   5.5083333e+00  -3.8000000e-01
   5.5111111e+00  -4.3696152e-01
   5.5138889e+00  -4.3696152e-01
   5.5166667e+00  -3.9500000e-01
   5.5194444e+00  -3.4803848e-01
   5.5222222e+00  -3.4303848e-01
   5.5250000e+00  -3.8500000e-01
   5.5277778e+00  -4.4196152e-01
   5.5305556e+00  -4.3696152e-01
   5.5333333e+00  -3.9000000e-01
   5.5361111e+00  -3.5303848e-01
   5.5388889e+00  -3.3803848e-01
   5.5416667e+00  -3.8500000e-01
   5.5444444e+00  -4.3196152e-01
   5.5472222e+00  -4.3196152e-01
   5.5500000e+00  -3.8000000e-01
   5.5527778e+00  -3.3303848e-01
   5.5555556e+00  -3.2303848e-01
   5.5583333e+00  -3.8000000e-01
   5.5611111e+00  -4.1696152e-01
   5.5638889e+00  -4.2696152e-01
   5.5666667e+00  -3.8000000e-01
   5.5694444e+00  -3.3303848e-01
   5.5722222e+00  -3.3803848e-01
   5.5750000e+00  -3.8000000e-01
   5.5777778e+00  -4.2196152e-01
   5.5805556e+00  -4.4196152e-01
   5.5833333e+00  -3.9000000e-01
   5.5861111e+00  -3.5303848e-01
   5.5888889e+00  -3.3803848e-01
   5.5916667e+00  -3.9000000e-01
   5.5944444e+00  -4.4196152e-01
   5.5972222e+00  -4.3196152e-01
   5.6000000e+00  -3.9000000e-01
   5.6027778e+00  -3.4303848e-01
   5.6055556e+00  -3.4803848e-01
   5.6083333e+00  -3.9000000e-01
   5.6111111e+00  -4.3696152e-01
   5.6138889e+00  -4.3696152e-01
   5.6166667e+00  -3.9500000e-01
   5.6194444e+00  -3.4803848e-01
   5.6222222e+00  -3.4303848e-01
   5.6250000e+00  -3.8000000e-01
   5.6277778e+00  -4.3696152e-01
   5.6305556e+00  -4.2696152e-01
   5.6333333e+00  -3.7500000e-01
   5.6361111e+00  -3.3803848e-01
   5.6388889e+00  -3.2803848e-01
   5.6416667e+00  -3.6500000e-01
   5.6444444e+00  -4.1196152e-01
   5.6472222e+00  -4.2196152e-01
   5.6500000e+00  -3.8000000e-01
   5.6527778e+00  -3.2803848e-01
   5.6555556e+00  -3.2303848e-01
   5.6583333e+00  -3.7500000e-01
   5.6611111e+00  -4.1696152e-01
   5.6638889e+00  -4.2696152e-01
   5.6666667e+00  -3.8000000e-01
   5.6694444e+00  -3.4303848e-01
   5.6722222e+00  -3.3303848e-01
   5.6750000e+00  -3.7500000e-01
   5.6777778e+00  -4.3196152e-01
   5.6805556e+00  -4.3196152e-01
   5.6833333e+00  -3.8500000e-01
   5.6861111e+00  -3.4303848e-01
   5.6888889e+00  -3.2803848e-01
   5.6916667e+00  -3.8000000e-01
   5.6944444e+00  -4.3696152e-01
   5.6972222e+00  -4.3196152e-01
   5.7000000e+00  -4.0000000e-01
   5.7027778e+00  -3.4803848e-01
   5.7055556e+00  -3.4303848e-01
   5.7083333e+00  -3.9500000e-01
   5.7111111e+00  -4.3196152e-01
   5.7138889e+00  -4.4196152e-01
   5.7166667e+00  -3.8500000e-01
   5.7194444e+00  -3.5303848e-01
   5.7222222e+00  -3.3803848e-01
   5.7250000e+00  -3.9000000e-01
   5.7277778e+00  -4.4196152e-01
   5.7305556e+00  -4.3196152e-01
   5.7333333e+00  -3.9500000e-01
   5.7361111e+00  -3.4303848e-01
   5.7388889e+00  -3.3303848e-01
   5.7416667e+00  -3.8000000e-01
   5.7444444e+00  -4.1696152e-01
   5.7472222e+00  -4.1196152e-01
   5.7500000e+00  -3.5000000e-01
   5.7527778e+00  -2.8803848e-01
   5.7555556e+00  -2.8803848e-01
   5.7583333e+00  -3.2500000e-01
   5.7611111e+00  -3.7196152e-01
   5.7638889e+00  -3.5696152e-01
   5.7666667e+00  -3.1000000e-01
   5.7694444e+00  -2.6803848e-01
   5.7722222e+00  -2.4303848e-01
   5.7750000e+00  -2.9000000e-01
   5.7777778e+00  -3.2196152e-01
   5.7805556e+00  -3.2696152e-01
   5.7833333e+00  -2.8000000e-01
   5.7861111e+00  -2.3803848e-01
   5.7888889e+00  -2.2303848e-01
   5.7916667e+00  -2.7500000e-01
   5.7944444e+00  -3.1696152e-01
   5.7972222e+00  -3.2196152e-01
   5.8000000e+00  -2.7500000e-01
   5.8027778e+00  -2.3303848e-01
   5.8055556e+00  -2.3803848e-01
   5.8083333e+00  -2.7500000e-01
   5.8111111e+00  -3.2196152e-01
   5.8138889e+00  -3.2696152e-01
   5.8166667e+00  -2.8500000e-01
   5.8194444e+00  -2.3303848e-01
   5.8222222e+00  -2.3303848e-01
   5.8250000e+00  -2.8000000e-01
   5.8277778e+00  -3.2696152e-01
   5.8305556e+00  -3.3696152e-01
   5.8333333e+00  -2.9000000e-01
   5.8361111e+00  -2.4303848e-01
   5.8388889e+00  -2.4303848e-01
   5.8416667e+00  -2.8500000e-01
   5.8444444e+00  -3.3196152e-01
   5.8472222e+00  -3.3696152e-01
   5.8500000e+00  -2.9000000e-01
   5.8527778e+00  -2.4803848e-01
   5.8555556e+00  -2.4803848e-01
   5.8583333e+00  -2.8500000e-01
   5.8611111e+00  -3.3196152e-01
   5.8638889e+00  -3.3696152e-01
   5.8666667e+00  -2.9500000e-01
   5.8694444e+00  -2.4803848e-01
   5.8722222e+00  -2.6303848e-01
   5.8750000e+00  -2.9000000e-01
   5.8777778e+00  -3.3196152e-01
   5.8805556e+00  -3.3196152e-01
   5.8833333e+00  -2.9500000e-01
   5.8861111e+00  -2.5803848e-01
   5.8888889e+00  -2.5303848e-01
   5.8916667e+00  -3.0000000e-01
   5.8944444e+00  -3.5196152e-01
   5.8972222e+00  -3.5196152e-01
   5.9000000e+00  -3.1000000e-01
   5.9027778e+00  -2.6803848e-01
   5.9055556e+00  -2.5803848e-01
   5.9083333e+00  -3.0500000e-01
   5.9111111e+00  -3.6196152e-01
   5.9138889e+00  -3.6196152e-01
   5.9166667e+00  -3.1500000e-01
   5.9194444e+00  -2.7303848e-01
   5.9222222e+00  -2.5803848e-01
   5.9250000e+00  -3.0500000e-01
   5.9277778e+00  -3.5696152e-01
   5.9305556e+00  -3.6196152e-01
   5.9333333e+00  -3.4000000e-01
   5.9361111e+00  -2.8803848e-01
   5.9388889e+00  -2.8803848e-01
   5.9416667e+00  -3.4000000e-01
   5.9444444e+00  -3.5196152e-01
   5.9472222e+00  -3.5696152e-01
   5.9500000e+00  -2.9500000e-01
   5.9527778e+00  -2.5303848e-01
   5.9555556e+00  -2.4803848e-01
   5.9583333e+00  -2.7000000e-01
   5.9611111e+00  -3.2196152e-01
   5.9638889e+00  -3.4196152e-01
   5.9666667e+00  -2.7500000e-01
   5.9694444e+00  -2.2303848e-01
   5.9722222e+00  -2.1303848e-01
   5.9750000e+00  -2.6000000e-01
   5.9777778e+00  -3.0196152e-01
   5.9805556e+00  -2.9696152e-01
   5.9833333e+00  -2.5000000e-01
   5.9861111e+00  -1.9803848e-01
   5.9888889e+00  -1.9803848e-01
   5.9916667e+00  -2.3000000e-01
   5.9944444e+00  -2.6196152e-01
   5.9972222e+00  -2.6196152e-01
   6.0000000e+00  -2.1000000e-01
   6.0027778e+00  -1.4303848e-01
   6.0055556e+00  -1.4803848e-01
   6.0083333e+00  -1.9000000e-01
   6.0111111e+00  -2.4696152e-01
   6.0138889e+00  -2.4696152e-01
   6.0166667e+00  -2.1500000e-01
   6.0194444e+00  -1.6303848e-01
   6.0222222e+00  -1.5803848e-01
   6.0250000e+00  -2.0500000e-01
   6.0277778e+00  -2.6196152e-01
   6.0305556e+00  -2.5696152e-01
   6.0333333e+00  -2.1000000e-01
   6.0361111e+00  -1.3803848e-01
   6.0388889e+00  -1.2303848e-01
   6.0416667e+00  -1.7500000e-01
   6.0444444e+00  -2.4196152e-01
   6.0472222e+00  -2.8196152e-01
   6.0500000e+00  -2.6000000e-01
   6.0527778e+00  -2.1303848e-01
   6.0555556e+00  -2.2803848e-01
   6.0583333e+00  -2.8500000e-01
   6.0611111e+00  -3.4196152e-01
   6.0638889e+00  -3.6696152e-01
   6.0666667e+00  -3.3500000e-01
   6.0694444e+00  -2.9303848e-01
   6.0722222e+00  -2.8803848e-01
   6.0750000e+00  -3.3000000e-01
   6.0777778e+00  -3.7696152e-01
   6.0805556e+00  -3.7696152e-01
   6.0833333e+00  -3.4000000e-01
   6.0861111e+00  -2.9803848e-01
   6.0888889e+00  -2.9303848e-01
   6.0916667e+00  -3.3000000e-01
   6.0944444e+00  -3.8196152e-01
   6.0972222e+00  -3.8696152e-01
   6.1000000e+00  -3.4000000e-01
   6.1027778e+00  -3.0303848e-01
   6.1055556e+00  -2.9803848e-01
   6.1083333e+00  -3.4500000e-01
   6.1111111e+00  -3.8696152e-01
   6.1138889e+00  -3.8696152e-01
   6.1166667e+00  -3.4000000e-01
   6.1194444e+00  -3.0803848e-01
   6.1222222e+00  -2.9803848e-01
   6.1250000e+00  -3.4000000e-01
   6.1277778e+00  -3.9696152e-01
   6.1305556e+00  -3.9696152e-01
   6.1333333e+00  -3.6000000e-01
   6.1361111e+00  -3.5303848e-01
   6.1388889e+00  -3.9303848e-01
   6.1416667e+00  -4.4500000e-01
   6.1444444e+00  -4.9196152e-01
   6.1472222e+00  -4.9196152e-01
   6.1500000e+00  -4.9500000e-01
   6.1527778e+00  -5.0803848e-01
   6.1555556e+00  -5.4303848e-01
   6.1583333e+00  -5.9000000e-01
   6.1611111e+00  -5.9696152e-01
   6.1638889e+00  -5.1696152e-01
   6.1666667e+00  -3.7500000e-01
   6.1694444e+00  -2.0803848e-01
   6.1722222e+00  -5.3038476e-02
   6.1750000e+00   1.3000000e-01
   6.1777778e+00   3.5803848e-01
   6.1805556e+00   5.8803848e-01
   6.1833333e+00   7.5000000e-01
   6.1861111e+00   7.7196152e-01
   6.1888889e+00   5.8196152e-01
   6.1916667e+00   2.1500000e-01
   6.1944444e+00  -1.9696152e-01
   6.1972222e+00  -4.6696152e-01
   6.2000000e+00  -5.3000000e-01
   6.2027778e+00  -4.7303848e-01
   6.2055556e+00  -4.1803848e-01
   6.2083333e+00  -4.1000000e-01
   6.2111111e+00  -4.3696152e-01
   6.2138889e+00  -4.3696152e-01
   6.2166667e+00  -4.0000000e-01
   6.2194444e+00  -3.5303848e-01
   6.2222222e+00  -3.4803848e-01
   6.2250000e+00  -3.8500000e-01
   6.2277778e+00  -4.3696152e-01
   6.2305556e+00  -4.4196152e-01
   6.2333333e+00  -3.9500000e-01
   6.2361111e+00  -3.6803848e-01
   6.2388889e+00  -3.5303848e-01
   6.2416667e+00  -3.9000000e-01
   6.2444444e+00  -4.4196152e-01
   6.2472222e+00  -4.3696152e-01
   6.2500000e+00  -4.0000000e-01
   6.2527778e+00  -3.4303848e-01
   6.2555556e+00  -3.5303848e-01
   6.2583333e+00  -3.9000000e-01
   6.2611111e+00  -4.2196152e-01
   6.2638889e+00  -4.2196152e-01
   6.2666667e+00  -3.7500000e-01
   6.2694444e+00  -3.4303848e-01
   6.2722222e+00  -3.4303848e-01
   6.2750000e+00  -3.7500000e-01
   6.2777778e+00  -4.1696152e-01
   6.2805556e+00  -4.3196152e-01
   6.2833333e+00  -3.7500000e-01
   6.2861111e+00  -3.3803848e-01
   6.2888889e+00  -3.3803848e-01
   6.2916667e+00  -3.8500000e-01
   6.2944444e+00  -4.3196152e-01
   6.2972222e+00  -4.4196152e-01
   6.3000000e+00  -3.9500000e-01
   6.3027778e+00  -3.4803848e-01
   6.3055556e+00  -3.4803848e-01
   6.3083333e+00  -3.8000000e-01
   6.3111111e+00  -4.2196152e-01
   6.3138889e+00  -4.2196152e-01
   6.3166667e+00  -3.7500000e-01
   6.3194444e+00  -3.2803848e-01
   6.3222222e+00  -3.2803848e-01
   6.3250000e+00  -3.7000000e-01
   6.3277778e+00  -4.1696152e-01
   6.3305556e+00  -4.1196152e-01
   6.3333333e+00  -3.6500000e-01
   6.3361111e+00  -3.2303848e-01
   6.3388889e+00  -3.1303848e-01
   6.3416667e+00  -3.6000000e-01
   6.3444444e+00  -4.1196152e-01
   6.3472222e+00  -4.2196152e-01
   6.3500000e+00  -3.7000000e-01
   6.3527778e+00  -3.3803848e-01
   6.3555556e+00  -3.3303848e-01
   6.3583333e+00  -3.8000000e-01
   6.3611111e+00  -4.2696152e-01
   6.3638889e+00  -4.3196152e-01
   6.3666667e+00  -3.7000000e-01
   6.3694444e+00  -3.3803848e-01
   6.3722222e+00  -3.2803848e-01
   6.3750000e+00  -3.7500000e-01
   6.3777778e+00  -4.1196152e-01
   6.3805556e+00  -4.2196152e-01
   6.3833333e+00  -3.7500000e-01
   6.3861111e+00  -3.3803848e-01
   6.3888889e+00  -3.3303848e-01
   6.3916667e+00  -3.7500000e-01
   6.3944444e+00  -4.2196152e-01
   6.3972222e+00  -4.3196152e-01
   6.4000000e+00  -3.8500000e-01
   6.4027778e+00  -3.4803848e-01
   6.4055556e+00  -3.2803848e-01
   6.4083333e+00  -3.8000000e-01
   6.4111111e+00  -4.1196152e-01
   6.4138889e+00  -4.2196152e-01
   6.4166667e+00  -3.8500000e-01
   6.4194444e+00  -3.4803848e-01
   6.4222222e+00  -3.4803848e-01
   6.4250000e+00  -3.9500000e-01
   6.4277778e+00  -4.4696152e-01
   6.4305556e+00  -4.4696152e-01
   6.4333333e+00  -4.0000000e-01
   6.4361111e+00  -3.5303848e-01
   6.4388889e+00  -3.5303848e-01
   6.4416667e+00  -3.9500000e-01
   6.4444444e+00  -4.4696152e-01
   6.4472222e+00  -4.3696152e-01
   6.4500000e+00  -4.0000000e-01
   6.4527778e+00  -3.4803848e-01
   6.4555556e+00  -3.4303848e-01
   6.4583333e+00  -3.8500000e-01
   6.4611111e+00  -4.1196152e-01
   6.4638889e+00  -4.2696152e-01
   6.4666667e+00  -3.7000000e-01
   6.4694444e+00  -3.2803848e-01
   6.4722222e+00  -3.2303848e-01
   6.4750000e+00  -3.5000000e-01
   6.4777778e+00  -4.0196152e-01
   6.4805556e+00  -3.8696152e-01
   6.4833333e+00  -3.2500000e-01
   6.4861111e+00  -2.7303848e-01
   6.4888889e+00  -2.7303848e-01
   6.4916667e+00  -2.9500000e-01
   6.4944444e+00  -3.3696152e-01
   6.4972222e+00  -3.3196152e-01
   6.5000000e+00  -2.8000000e-01
   6.5027778e+00  -2.4303848e-01
   6.5055556e+00  -2.3303848e-01
   6.5083333e+00  -2.8500000e-01
   6.5111111e+00  -3.2196152e-01
   6.5138889e+00  -3.2696152e-01
   6.5166667e+00  -2.9000000e-01
   6.5194444e+00  -2.4303848e-01
   6.5222222e+00  -2.4303848e-01
   6.5250000e+00  -2.8500000e-01
   6.5277778e+00  -3.3696152e-01
   6.5305556e+00  -3.3196152e-01
   6.5333333e+00  -2.9000000e-01
   6.5361111e+00  -2.4303848e-01
   6.5388889e+00  -2.4303848e-01
   6.5416667e+00  -3.0000000e-01
   6.5444444e+00  -3.3696152e-01
   6.5472222e+00  -3.3696152e-01
   6.5500000e+00  -2.8500000e-01
   6.5527778e+00  -2.4303848e-01
   6.5555556e+00  -2.4803848e-01
   6.5583333e+00  -2.9500000e-01
   6.5611111e+00  -3.2696152e-01
   6.5638889e+00  -3.4196152e-01
   6.5666667e+00  -3.0000000e-01
   6.5694444e+00  -2.5803848e-01
   6.5722222e+00  -2.6303848e-01
   6.5750000e+00  -2.9000000e-01
   6.5777778e+00  -3.4196152e-01
   6.5805556e+00  -3.3696152e-01
   6.5833333e+00  -3.0000000e-01
   6.5861111e+00  -2.5303848e-01
   6.5888889e+00  -2.5303848e-01
   6.5916667e+00  -3.0500000e-01
   6.5944444e+00  -3.5696152e-01
   6.5972222e+00  -3.5696152e-01
   6.6000000e+00  -3.0500000e-01
   6.6027778e+00  -2.7803848e-01
   6.6055556e+00  -2.6303848e-01
   6.6083333e+00  -3.1500000e-01
   6.6111111e+00  -3.5696152e-01
   6.6138889e+00  -3.6196152e-01
   6.6166667e+00  -3.2000000e-01
   6.6194444e+00  -2.8303848e-01
   6.6222222e+00  -2.7803848e-01
   6.6250000e+00  -3.2500000e-01
   6.6277778e+00  -3.6696152e-01
   6.6305556e+00  -3.6696152e-01
   6.6333333e+00  -3.3000000e-01
   6.6361111e+00  -2.9303848e-01
   6.6388889e+00  -2.7803848e-01
   6.6416667e+00  -3.1500000e-01
   6.6444444e+00  -3.6696152e-01
   6.6472222e+00  -3.7696152e-01
   6.6500000e+00  -3.3000000e-01
   6.6527778e+00  -2.9303848e-01
   6.6555556e+00  -2.8803848e-01
   6.6583333e+00  -3.2500000e-01
   6.6611111e+00  -3.7196152e-01
   6.6638889e+00  -3.7696152e-01
   6.6666667e+00  -3.3000000e-01
   6.6694444e+00  -2.9303848e-01
   6.6722222e+00  -2.8303848e-01
   6.6750000e+00  -3.1500000e-01
   6.6777778e+00  -3.7196152e-01
   6.6805556e+00  -3.8196152e-01
   6.6833333e+00  -3.2500000e-01
   6.6861111e+00  -2.8303848e-01
   6.6888889e+00  -2.6803848e-01
   6.6916667e+00  -3.1500000e-01
   6.6944444e+00  -3.4696152e-01
   6.6972222e+00  -3.5196152e-01
   6.7000000e+00  -2.9500000e-01
   6.7027778e+00  -2.5803848e-01
   6.7055556e+00  -2.5303848e-01
   6.7083333e+00  -2.8000000e-01
   6.7111111e+00  -3.1696152e-01
   6.7138889e+00  -3.2196152e-01
   6.7166667e+00  -2.7500000e-01
   6.7194444e+00  -2.2803848e-01
   6.7222222e+00  -2.1303848e-01
   6.7250000e+00  -2.5000000e-01
   6.7277778e+00  -2.8196152e-01
   6.7305556e+00  -2.8196152e-01
   6.7333333e+00  -2.2500000e-01
   6.7361111e+00  -1.7303848e-01
   6.7388889e+00  -1.7303848e-01
   6.7416667e+00  -2.2500000e-01
   6.7444444e+00  -2.7196152e-01
   6.7472222e+00  -2.7696152e-01
   6.7500000e+00  -2.3500000e-01
   6.7527778e+00  -1.8803848e-01
   6.7555556e+00  -1.7303848e-01
   6.7583333e+00  -2.1000000e-01
   6.7611111e+00  -2.5196152e-01
   6.7638889e+00  -2.4696152e-01
   6.7666667e+00  -2.0000000e-01
   6.7694444e+00  -1.6803848e-01
   6.7722222e+00  -2.0303848e-01
   6.7750000e+00  -2.7000000e-01
   6.7777778e+00  -3.3196152e-01
   6.7805556e+00  -3.5196152e-01
   6.7833333e+00  -3.2000000e-01
   6.7861111e+00  -2.8303848e-01
   6.7888889e+00  -2.9803848e-01
   6.7916667e+00  -3.5000000e-01
   6.7944444e+00  -4.0696152e-01
   6.7972222e+00  -4.2196152e-01
   6.8000000e+00  -3.8500000e-01
   6.8027778e+00  -3.2803848e-01
   6.8055556e+00  -3.2303848e-01
   6.8083333e+00  -3.7000000e-01
   6.8111111e+00  -4.1696152e-01
   6.8138889e+00  -4.1696152e-01
   6.8166667e+00  -3.8000000e-01
   6.8194444e+00  -3.4303848e-01
   6.8222222e+00  -3.3303848e-01
   6.8250000e+00  -3.6500000e-01
   6.8277778e+00  -4.0696152e-01
   6.8305556e+00  -4.1696152e-01
   6.8333333e+00  -3.8500000e-01
   6.8361111e+00  -3.3303848e-01
   6.8388889e+00  -3.2803848e-01
   6.8416667e+00  -3.7500000e-01
   6.8444444e+00  -4.1196152e-01
   6.8472222e+00  -4.1696152e-01
   6.8500000e+00  -3.8500000e-01
   6.8527778e+00  -3.5303848e-01
   6.8555556e+00  -3.5303848e-01
   6.8583333e+00  -4.2500000e-01
   6.8611111e+00  -5.0196152e-01
   6.8638889e+00  -5.3196152e-01
   6.8666667e+00  -4.9000000e-01
   6.8694444e+00  -4.3803848e-01
   6.8722222e+00  -4.3803848e-01
   6.8750000e+00  -5.0000000e-01
   6.8777778e+00  -5.9196152e-01
   6.8805556e+00  -6.5196152e-01
   6.8833333e+00  -6.0500000e-01
   6.8861111e+00  -5.1803848e-01
   6.8888889e+00  -4.0303848e-01
   6.8916667e+00  -3.2000000e-01
   6.8944444e+00  -2.2196152e-01
   6.8972222e+00  -3.1961524e-02
   6.9000000e+00   2.7500000e-01
   6.9027778e+00   5.9196152e-01
   6.9055556e+00   8.0696152e-01
   6.9083333e+00   8.2500000e-01
   6.9111111e+00   6.9303848e-01
   6.9138889e+00   3.9303848e-01
   6.9166667e+00   4.0000000e-02
   6.9194444e+00  -2.4803848e-01
   6.9222222e+00  -4.3803848e-01
   6.9250000e+00  -5.6500000e-01
   6.9277778e+00  -5.8696152e-01
   6.9305556e+00  -5.4196152e-01
   6.9333333e+00  -4.6000000e-01
   6.9361111e+00  -4.1303848e-01
   6.9388889e+00  -3.9803848e-01
   6.9416667e+00  -4.3500000e-01
   6.9444444e+00  -4.8696152e-01
   6.9472222e+00  -4.8696152e-01
   6.9500000e+00  -4.4000000e-01
   6.9527778e+00  -4.0303848e-01
   6.9555556e+00  -3.9803848e-01
   6.9583333e+00  -4.4000000e-01
   6.9611111e+00  -4.7696152e-01
   6.9638889e+00  -4.7196152e-01
   6.9666667e+00  -4.3500000e-01
   6.9694444e+00  -3.8803848e-01
   6.9722222e+00  -3.7803848e-01
   6.9750000e+00  -4.4500000e-01
   6.9777778e+00  -4.8196152e-01
   6.9805556e+00  -4.9196152e-01
   6.9833333e+00  -4.4000000e-01
   6.9861111e+00  -3.8803848e-01
   6.9888889e+00  -3.8803848e-01
   6.9916667e+00  -4.3500000e-01
   6.9944444e+00  -4.8196152e-01
   6.9972222e+00  -4.8196152e-01
   7.0000000e+00  -4.3000000e-01
   7.0027778e+00  -3.8303848e-01
   7.0055556e+00  -3.8303848e-01
   7.0083333e+00  -4.3000000e-01
   7.0111111e+00  -4.8696152e-01
   7.0138889e+00  -4.8696152e-01
   7.0166667e+00  -4.5500000e-01
   7.0194444e+00  -4.0303848e-01
   7.0222222e+00  -4.0803848e-01
   7.0250000e+00  -4.4500000e-01
   7.0277778e+00  -4.8696152e-01
   7.0305556e+00  -4.9696152e-01
   7.0333333e+00  -4.3500000e-01
   7.0361111e+00  -3.9803848e-01
   7.0388889e+00  -4.0303848e-01
   7.0416667e+00  -4.5500000e-01
   7.0444444e+00  -4.8696152e-01
   7.0472222e+00  -4.7696152e-01
   7.0500000e+00  -4.3000000e-01
   7.0527778e+00  -3.8803848e-01
   7.0555556e+00  -3.9303848e-01
   7.0583333e+00  -4.4000000e-01
   7.0611111e+00  -4.8196152e-01
   7.0638889e+00  -4.8196152e-01
   7.0666667e+00  -4.2500000e-01
   7.0694444e+00  -3.8803848e-01
   7.0722222e+00  -3.8303848e-01
   7.0750000e+00  -4.5500000e-01
   7.0777778e+00  -4.7696152e-01
   7.0805556e+00  -4.7696152e-01
   7.0833333e+00  -4.1500000e-01
   7.0861111e+00  -3.8303848e-01
   7.0888889e+00  -3.8303848e-01
   7.0916667e+00  -4.4000000e-01
   7.0944444e+00  -4.7696152e-01
   7.0972222e+00  -4.9196152e-01
   7.1000000e+00  -4.4500000e-01
   7.1027778e+00  -4.0803848e-01
   7.1055556e+00  -4.0303848e-01
   7.1083333e+00  -4.5500000e-01
   7.1111111e+00  -4.9696152e-01
   7.1138889e+00  -5.0696152e-01
   7.1166667e+00  -4.5500000e-01
   7.1194444e+00  -4.0803848e-01
   7.1222222e+00  -4.0803848e-01
   7.1250000e+00  -4.5000000e-01
   7.1277778e+00  -4.9696152e-01
   7.1305556e+00  -5.0196152e-01
   7.1333333e+00  -4.6000000e-01
   7.1361111e+00  -4.1803848e-01
   7.1388889e+00  -4.0803848e-01
   7.1416667e+00  -4.7000000e-01
   7.1444444e+00  -5.0696152e-01
   7.1472222e+00  -5.2696152e-01
   7.1500000e+00  -4.7500000e-01
   7.1527778e+00  -4.3803848e-01
   7.1555556e+00  -4.4303848e-01
   7.1583333e+00  -4.8500000e-01
   7.1611111e+00  -5.4196152e-01
   7.1638889e+00  -5.4196152e-01
   7.1666667e+00  -5.0000000e-01
   7.1694444e+00  -4.5803848e-01
   7.1722222e+00  -4.6303848e-01
   7.1750000e+00  -5.1000000e-01
   7.1777778e+00  -5.4196152e-01
   7.1805556e+00  -5.4196152e-01
   7.1833333e+00  -4.9000000e-01
   7.1861111e+00  -4.3803848e-01
   7.1888889e+00  -4.2803848e-01
   7.1916667e+00  -4.5000000e-01
   7.1944444e+00  -4.9196152e-01
   7.1972222e+00  -4.8196152e-01
   7.2000000e+00  -4.2500000e-01
   7.2027778e+00  -3.7303848e-01
   7.2055556e+00  -3.4803848e-01
   7.2083333e+00  -3.8500000e-01
   7.2111111e+00  -4.1196152e-01
   7.2138889e+00  -4.0196152e-01
   7.2166667e+00  -3.6500000e-01
   7.2194444e+00  -3.1303848e-01
   7.2222222e+00  -3.0803848e-01
   7.2250000e+00  -3.4500000e-01
   7.2277778e+00  -3.8196152e-01
   7.2305556e+00  -3.8196152e-01
   7.2333333e+00  -3.4000000e-01
   7.2361111e+00  -2.8803848e-01
   7.2388889e+00  -2.8303848e-01
   7.2416667e+00  -3.3500000e-01
   7.2444444e+00  -3.7696152e-01
   7.2472222e+00  -3.8196152e-01
   7.2500000e+00  -3.3000000e-01
   7.2527778e+00  -2.9303848e-01
   7.2555556e+00  -2.8303848e-01
   7.2583333e+00  -3.3000000e-01
   7.2611111e+00  -3.7196152e-01
   7.2638889e+00  -3.7696152e-01
   7.2666667e+00  -3.4500000e-01
   7.2694444e+00  -2.8303848e-01
   7.2722222e+00  -2.7303848e-01
   7.2750000e+00  -3.1500000e-01
   7.2777778e+00  -3.6696152e-01
   7.2805556e+00  -3.7696152e-01
   7.2833333e+00  -3.2500000e-01
   7.2861111e+00  -2.8803848e-01
   7.2888889e+00  -2.8303848e-01
   7.2916667e+00  -3.3000000e-01
   7.2944444e+00  -3.8196152e-01
   7.2972222e+00  -3.8196152e-01
   7.3000000e+00  -3.3000000e-01
   7.3027778e+00  -2.9303848e-01
   7.3055556e+00  -3.0303848e-01
   7.3083333e+00  -3.4500000e-01
   7.3111111e+00  -3.9196152e-01
   7.3138889e+00  -4.0696152e-01
   7.3166667e+00  -3.5500000e-01
   7.3194444e+00  -2.9803848e-01
   7.3222222e+00  -2.8803848e-01
   7.3250000e+00  -3.4000000e-01
   7.3277778e+00  -3.8196152e-01
   7.3305556e+00  -3.8196152e-01
   7.3333333e+00  -3.4000000e-01
   7.3361111e+00  -2.9803848e-01
   7.3388889e+00  -2.9803848e-01
   7.3416667e+00  -3.4000000e-01
   7.3444444e+00  -3.8696152e-01
   7.3472222e+00  -3.9196152e-01
   7.3500000e+00  -3.5500000e-01
   7.3527778e+00  -2.9803848e-01
   7.3555556e+00  -2.9303848e-01
   7.3583333e+00  -3.4000000e-01
   7.3611111e+00  -3.9196152e-01
   7.3638889e+00  -3.9196152e-01
   7.3666667e+00  -3.4500000e-01
   7.3694444e+00  -3.0803848e-01
   7.3722222e+00  -3.0803848e-01
   7.3750000e+00  -3.5000000e-01
   7.3777778e+00  -3.9196152e-01
   7.3805556e+00  -3.9196152e-01
   7.3833333e+00  -3.5000000e-01
   7.3861111e+00  -3.0803848e-01
   7.3888889e+00  -3.1803848e-01
   7.3916667e+00  -3.6500000e-01
   7.3944444e+00  -3.9696152e-01
   7.3972222e+00  -4.0196152e-01
   7.4000000e+00  -3.5000000e-01
   7.4027778e+00  -3.1303848e-01
   7.4055556e+00  -2.9803848e-01
   7.4083333e+00  -3.4500000e-01
   7.4111111e+00  -3.8696152e-01
   7.4138889e+00  -3.8696152e-01
   7.4166667e+00  -3.4000000e-01
   7.4194444e+00  -3.0303848e-01
   7.4222222e+00  -2.9303848e-01
   7.4250000e+00  -3.3500000e-01
   7.4277778e+00  -3.9196152e-01
   7.4305556e+00  -3.8196152e-01
   7.4333333e+00  -3.2500000e-01
   7.4361111e+00  -2.7803848e-01
   7.4388889e+00  -2.7303848e-01
   7.4416667e+00  -3.2500000e-01
   7.4444444e+00  -3.5696152e-01
   7.4472222e+00  -3.5696152e-01
   7.4500000e+00  -3.0500000e-01
   7.4527778e+00  -2.5303848e-01
   7.4555556e+00  -2.4303848e-01
   7.4583333e+00  -2.7000000e-01
   7.4611111e+00  -3.0196152e-01
   7.4638889e+00  -3.0696152e-01
   7.4666667e+00  -2.5500000e-01
   7.4694444e+00  -1.9803848e-01
   7.4722222e+00  -1.8303848e-01
   7.4750000e+00  -2.1500000e-01
   7.4777778e+00  -2.6196152e-01
   7.4805556e+00  -2.6196152e-01
   7.4833333e+00  -2.1500000e-01
   7.4861111e+00  -1.8303848e-01
   7.4888889e+00  -1.7303848e-01
   7.4916667e+00  -2.2500000e-01
   7.4944444e+00  -2.6696152e-01
   7.4972222e+00  -2.7196152e-01
   7.5000000e+00  -2.3500000e-01
   7.5027778e+00  -1.8303848e-01
   7.5055556e+00  -1.8303848e-01
   7.5083333e+00  -2.3000000e-01
   7.5111111e+00  -2.7696152e-01
   7.5138889e+00  -2.6696152e-01
   7.5166667e+00  -2.1000000e-01
   7.5194444e+00  -1.6803848e-01
   7.5222222e+00  -1.4303848e-01
   7.5250000e+00  -2.0500000e-01
   7.5277778e+00  -2.7696152e-01
   7.5305556e+00  -3.0196152e-01
   7.5333333e+00  -2.7000000e-01
   7.5361111e+00  -2.2303848e-01
   7.5388889e+00  -2.3303848e-01
   7.5416667e+00  -2.9000000e-01
   7.5444444e+00  -3.4196152e-01
   7.5472222e+00  -3.5196152e-01
   7.5500000e+00  -3.1000000e-01
   7.5527778e+00  -2.8303848e-01
   7.5555556e+00  -2.8303848e-01
   7.5583333e+00  -3.4000000e-01
   7.5611111e+00  -3.9196152e-01
   7.5638889e+00  -3.9696152e-01
   7.5666667e+00  -3.4000000e-01
   7.5694444e+00  -2.9803848e-01
   7.5722222e+00  -3.0303848e-01
   7.5750000e+00  -3.6000000e-01
   7.5777778e+00  -4.0196152e-01
   7.5805556e+00  -4.0696152e-01
   7.5833333e+00  -3.5500000e-01
   7.5861111e+00  -3.1803848e-01
   7.5888889e+00  -3.1303848e-01
   7.5916667e+00  -3.6000000e-01
   7.5944444e+00  -4.1196152e-01
   7.5972222e+00  -4.0196152e-01
   7.6000000e+00  -3.6500000e-01
   7.6027778e+00  -3.1803848e-01
   7.6055556e+00  -3.2303848e-01
   7.6083333e+00  -3.6000000e-01
   7.6111111e+00  -4.0196152e-01
   7.6138889e+00  -4.0696152e-01
   7.6166667e+00  -3.5500000e-01
   7.6194444e+00  -3.3303848e-01
   7.6222222e+00  -3.5803848e-01
   7.6250000e+00  -4.3500000e-01
   7.6277778e+00  -5.1196152e-01
   7.6305556e+00  -5.2696152e-01
   7.6333333e+00  -5.1000000e-01
   7.6361111e+00  -5.0303848e-01
   7.6388889e+00  -5.1303848e-01
   7.6416667e+00  -4.9000000e-01
   7.6444444e+00  -4.2196152e-01
   7.6472222e+00  -2.8196152e-01
   7.6500000e+00  -9.5000000e-02
   7.6527778e+00   1.5696152e-01
   7.6555556e+00   4.3696152e-01
   7.6583333e+00   6.4500000e-01
   7.6611111e+00   7.4803848e-01
   7.6638889e+00   7.8303848e-01
   7.6666667e+00   7.2000000e-01
   7.6694444e+00   4.7696152e-01
   7.6722222e+00   1.0196152e-01
   7.6750000e+00  -2.7000000e-01
   7.6777778e+00  -4.9696152e-01
   7.6805556e+00  -5.6196152e-01
   7.6833333e+00  -5.1000000e-01
   7.6861111e+00  -4.1803848e-01
   7.6888889e+00  -3.7803848e-01
   7.6916667e+00  -3.9000000e-01
   7.6944444e+00  -4.3696152e-01
   7.6972222e+00  -4.4196152e-01
   7.7000000e+00  -3.9500000e-01
   7.7027778e+00  -3.5303848e-01
   7.7055556e+00  -3.5303848e-01
   7.7083333e+00  -4.0000000e-01
   7.7111111e+00  -4.5196152e-01
   7.7138889e+00  -4.4196152e-01
   7.7166667e+00  -4.0500000e-01
   7.7194444e+00  -3.5803848e-01
   7.7222222e+00  -3.5803848e-01
   7.7250000e+00  -4.0000000e-01
   7.7277778e+00  -4.4696152e-01
   7.7305556e+00  -4.5196152e-01
   7.7333333e+00  -4.1500000e-01
   7.7361111e+00  -3.6303848e-01
   7.7388889e+00  -3.5803848e-01
   7.7416667e+00  -3.9500000e-01
   7.7444444e+00  -4.3696152e-01
   7.7472222e+00  -4.4196152e-01
   7.7500000e+00  -3.9500000e-01
   7.7527778e+00  -3.5803848e-01
   7.7555556e+00  -3.5803848e-01
   7.7583333e+00  -4.1000000e-01
   7.7611111e+00  -4.4696152e-01
   7.7638889e+00  -4.6196152e-01
   7.7666667e+00  -4.0000000e-01
   7.7694444e+00  -3.6803848e-01
   7.7722222e+00  -3.6803848e-01
   7.7750000e+00  -4.0000000e-01
   7.7777778e+00  -4.4196152e-01
   7.7805556e+00  -4.4696152e-01
   7.7833333e+00  -3.9000000e-01
   7.7861111e+00  -3.4803848e-01
   7.7888889e+00  -3.4803848e-01
   7.7916667e+00  -3.9000000e-01
   7.7944444e+00  -4.3196152e-01
   7.7972222e+00  -4.4696152e-01
   7.8000000e+00  -4.0000000e-01
   7.8027778e+00  -3.5803848e-01
   7.8055556e+00  -3.5303848e-01
   7.8083333e+00  -3.9500000e-01
   7.8111111e+00  -4.4696152e-01
   7.8138889e+00  -4.5196152e-01
   7.8166667e+00  -3.9500000e-01
   7.8194444e+00  -3.6303848e-01
   7.8222222e+00  -3.4803848e-01
   7.8250000e+00  -4.0000000e-01
   7.8277778e+00  -4.4196152e-01
   7.8305556e+00  -4.3696152e-01
   7.8333333e+00  -3.9500000e-01
   7.8361111e+00  -3.6303848e-01
   7.8388889e+00  -3.5803848e-01
   7.8416667e+00  -3.9500000e-01
   7.8444444e+00  -4.3196152e-01
   7.8472222e+00  -4.3696152e-01
   7.8500000e+00  -3.8500000e-01
   7.8527778e+00  -3.4303848e-01
   7.8555556e+00  -3.3803848e-01
   7.8583333e+00  -3.8000000e-01
   7.8611111e+00  -4.2696152e-01
   7.8638889e+00  -4.3196152e-01
   7.8666667e+00  -3.8500000e-01
   7.8694444e+00  -3.4303848e-01
   7.8722222e+00  -3.4303848e-01
   7.8750000e+00  -3.9000000e-01
   7.8777778e+00  -4.2696152e-01
   7.8805556e+00  -4.3696152e-01
   7.8833333e+00  -3.9500000e-01
   7.8861111e+00  -3.5303848e-01
   7.8888889e+00  -3.5803848e-01
   7.8916667e+00  -4.0500000e-01
   7.8944444e+00  -4.3696152e-01
   7.8972222e+00  -4.5696152e-01
   7.9000000e+00  -4.1000000e-01
   7.9027778e+00  -3.6803848e-01
   7.9055556e+00  -3.5303848e-01
   7.9083333e+00  -4.1000000e-01
   7.9111111e+00  -4.4696152e-01
   7.9138889e+00  -4.4696152e-01
   7.9166667e+00  -4.0500000e-01
   7.9194444e+00  -3.7303848e-01
   7.9222222e+00  -3.5803848e-01
   7.9250000e+00  -4.0500000e-01
   7.9277778e+00  -4.5196152e-01
   7.9305556e+00  -4.5196152e-01
   7.9333333e+00  -4.1000000e-01
   7.9361111e+00  -3.6803848e-01
   7.9388889e+00  -3.6303848e-01
   7.9416667e+00  -3.9500000e-01
   7.9444444e+00  -4.3696152e-01
   7.9472222e+00  -4.2196152e-01
   7.9500000e+00  -3.7500000e-01
   7.9527778e+00  -3.1803848e-01
   7.9555556e+00  -3.0303848e-01
   7.9583333e+00  -3.3000000e-01
   7.9611111e+00  -3.6696152e-01
   7.9638889e+00  -3.6196152e-01
   7.9666667e+00  -3.1500000e-01
   7.9694444e+00  -2.8303848e-01
   7.9722222e+00  -2.5303848e-01
   7.9750000e+00  -2.9000000e-01
   7.9777778e+00  -3.4196152e-01
   7.9805556e+00  -3.4196152e-01
   7.9833333e+00  -2.8000000e-01
   7.9861111e+00  -2.3303848e-01
   7.9888889e+00  -2.2803848e-01
   7.9916667e+00  -2.6500000e-01
   7.9944444e+00  -3.1696152e-01
   7.9972222e+00  -3.2196152e-01
   8.0000000e+00  -2.6000000e-01
   8.0027778e+00  -2.1303848e-01
   8.0055556e+00  -2.0803848e-01
   8.0083333e+00  -2.5000000e-01
   8.0111111e+00  -2.9196152e-01
   8.0138889e+00  -2.9696152e-01
   8.0166667e+00  -2.4500000e-01
   8.0194444e+00  -2.0303848e-01
   8.0222222e+00  -2.1303848e-01
   8.0250000e+00  -2.5500000e-01
   8.0277778e+00  -3.0696152e-01
   8.0305556e+00  -3.0696152e-01
   8.0333333e+00  -2.6000000e-01
   8.0361111e+00  -2.1303848e-01
   8.0388889e+00  -2.2303848e-01
   8.0416667e+00  -2.6000000e-01
   8.0444444e+00  -3.0196152e-01
   8.0472222e+00  -3.0696152e-01
   8.0500000e+00  -2.6500000e-01
   8.0527778e+00  -2.0803848e-01
   8.0555556e+00  -2.1803848e-01
   8.0583333e+00  -2.5500000e-01
   8.0611111e+00  -3.0196152e-01
   8.0638889e+00  -3.0696152e-01
   8.0666667e+00  -2.6500000e-01
   8.0694444e+00  -2.0803848e-01
   8.0722222e+00  -2.1303848e-01
   8.0750000e+00  -2.6000000e-01
   8.0777778e+00  -3.0696152e-01
   8.0805556e+00  -3.0696152e-01
   8.0833333e+00  -2.6000000e-01
   8.0861111e+00  -2.1803848e-01
   8.0888889e+00  -2.2803848e-01
   8.0916667e+00  -2.7000000e-01
   8.0944444e+00  -3.1696152e-01
   8.0972222e+00  -3.1196152e-01
   8.1000000e+00  -2.8000000e-01
   8.1027778e+00  -2.2803848e-01
   8.1055556e+00  -2.3803848e-01
   8.1083333e+00  -2.7500000e-01
   8.1111111e+00  -3.2196152e-01
   8.1138889e+00  -3.1696152e-01
   8.1166667e+00  -2.8000000e-01
   8.1194444e+00  -2.3803848e-01
   8.1222222e+00  -2.3303848e-01
   8.1250000e+00  -2.8000000e-01
   8.1277778e+00  -3.2696152e-01
   8.1305556e+00  -3.3696152e-01
   8.1333333e+00  -2.8000000e-01
   8.1361111e+00  -2.3803848e-01
   8.1388889e+00  -2.2803848e-01
   8.1416667e+00  -2.8000000e-01
   8.1444444e+00  -3.1696152e-01
   8.1472222e+00  -3.1696152e-01
   8.1500000e+00  -2.8000000e-01
   8.1527778e+00  -2.3803848e-01
   8.1555556e+00  -2.4303848e-01
   8.1583333e+00  -2.8000000e-01
   8.1611111e+00  -3.1196152e-01
   8.1638889e+00  -3.1696152e-01
   8.1666667e+00  -2.7500000e-01
   8.1694444e+00  -2.3803848e-01
   8.1722222e+00  -2.3803848e-01
   8.1750000e+00  -2.8500000e-01
   8.1777778e+00  -3.2196152e-01
   8.1805556e+00  -3.2696152e-01
   8.1833333e+00  -2.7500000e-01
   8.1861111e+00  -2.3803848e-01
   8.1888889e+00  -2.1803848e-01
   8.1916667e+00  -2.5500000e-01
   8.1944444e+00  -2.8696152e-01
   8.1972222e+00  -2.9196152e-01
   8.2000000e+00  -2.4500000e-01
   8.2027778e+00  -2.0803848e-01
   8.2055556e+00  -2.0303848e-01
   8.2083333e+00  -2.3500000e-01
   8.2111111e+00  -2.7196152e-01
   8.2138889e+00  -2.6696152e-01
   8.2166667e+00  -2.2000000e-01
   8.2194444e+00  -1.6303848e-01
   8.2222222e+00  -1.6303848e-01
   8.2250000e+00  -1.9500000e-01
   8.2277778e+00  -2.3196152e-01
   8.2305556e+00  -2.2196152e-01
   8.2333333e+00  -1.6500000e-01
   8.2361111e+00  -1.3303848e-01
   8.2388889e+00  -1.1303848e-01
   8.2416667e+00  -1.5000000e-01
   8.2444444e+00  -1.8696152e-01
   8.2472222e+00  -2.1196152e-01
   8.2500000e+00  -1.7000000e-01
   8.2527778e+00  -1.2303848e-01
   8.2555556e+00  -1.2803848e-01
   8.2583333e+00  -1.8000000e-01
   8.2611111e+00  -2.1196152e-01
   8.2638889e+00  -2.1696152e-01
   8.2666667e+00  -1.7000000e-01
   8.2694444e+00  -1.2803848e-01
   8.2722222e+00  -1.2303848e-01
   8.2750000e+00  -1.5000000e-01
   8.2777778e+00  -1.9696152e-01
   8.2805556e+00  -1.8196152e-01
   8.2833333e+00  -1.5500000e-01
   8.2861111e+00  -1.4803848e-01
   8.2888889e+00  -1.7303848e-01
   8.2916667e+00  -2.3000000e-01
   8.2944444e+00  -2.6696152e-01
   8.2972222e+00  -2.8696152e-01
   8.3000000e+00  -2.4500000e-01
   8.3027778e+00  -2.2303848e-01
   8.3055556e+00  -2.3303848e-01
   8.3083333e+00  -2.9000000e-01
   8.3111111e+00  -3.4196152e-01
   8.3138889e+00  -3.3196152e-01
   8.3166667e+00  -2.8500000e-01
   8.3194444e+00  -2.4803848e-01
   8.3222222e+00  -2.5303848e-01
   8.3250000e+00  -3.0000000e-01
   8.3277778e+00  -3.4696152e-01
   8.3305556e+00  -3.5196152e-01
   8.3333333e+00  -3.0500000e-01
   8.3361111e+00  -2.7303848e-01
   8.3388889e+00  -2.7303848e-01
   8.3416667e+00  -3.1500000e-01
   8.3444444e+00  -3.6196152e-01
   8.3472222e+00  -3.6196152e-01
   8.3500000e+00  -3.1000000e-01
   8.3527778e+00  -2.8303848e-01
   8.3555556e+00  -2.6803848e-01
   8.3583333e+00  -3.1000000e-01
   8.3611111e+00  -3.5696152e-01
   8.3638889e+00  -3.6696152e-01
   8.3666667e+00  -3.1500000e-01
   8.3694444e+00  -2.7303848e-01
   8.3722222e+00  -2.8803848e-01
   8.3750000e+00  -3.5000000e-01
   8.3777778e+00  -4.3196152e-01
   8.3805556e+00  -4.6696152e-01
   8.3833333e+00  -4.3000000e-01
   8.3861111e+00  -3.9303848e-01
   8.3888889e+00  -4.2803848e-01
   8.3916667e+00  -5.2500000e-01
   8.3944444e+00  -6.0196152e-01
   8.3972222e+00  -5.9696152e-01
   8.4000000e+00  -5.1000000e-01
   8.4027778e+00  -4.1303848e-01
   8.4055556e+00  -3.1803848e-01
   8.4083333e+00  -2.5000000e-01
   8.4111111e+00  -1.7696152e-01
   8.4138889e+00  -1.9615242e-03
   8.4166667e+00   2.6500000e-01
   8.4194444e+00   5.6196152e-01
   8.4222222e+00   7.7696152e-01
   8.4250000e+00   8.5500000e-01
   8.4277778e+00   8.0303848e-01
   8.4305556e+00   6.4803848e-01
   8.4333333e+00   4.1000000e-01
   8.4361111e+00   1.0696152e-01
   8.4388889e+00  -1.6303848e-01
   8.4416667e+00  -3.9000000e-01
   8.4444444e+00  -5.1696152e-01
   8.4472222e+00  -5.4696152e-01
   8.4500000e+00  -4.7500000e-01
   8.4527778e+00  -3.8803848e-01
   8.4555556e+00  -3.3303848e-01
   8.4583333e+00  -3.5500000e-01
   8.4611111e+00  -4.0196152e-01
   8.4638889e+00  -4.1196152e-01
   8.4666667e+00  -3.5500000e-01
   8.4694444e+00  -3.1303848e-01
   8.4722222e+00  -3.0303848e-01
   8.4750000e+00  -3.4500000e-01
   8.4777778e+00  -3.8696152e-01
   8.4805556e+00  -3.8696152e-01
   8.4833333e+00  -3.5000000e-01
   8.4861111e+00  -3.1303848e-01
   8.4888889e+00  -3.0803848e-01
   8.4916667e+00  -3.5000000e-01
   8.4944444e+00  -4.0196152e-01
   8.4972222e+00  -4.0696152e-01
   8.5000000e+00  -3.7000000e-01
   8.5027778e+00  -3.1303848e-01
   8.5055556e+00  -3.2303848e-01
   8.5083333e+00  -3.6000000e-01
   8.5111111e+00  -4.0696152e-01
   8.5138889e+00  -4.1196152e-01
   8.5166667e+00  -3.5500000e-01
   8.5194444e+00  -3.0303848e-01
   8.5222222e+00  -3.1303848e-01
   8.5250000e+00  -3.6000000e-01
   8.5277778e+00  -3.9696152e-01
   8.5305556e+00  -4.0196152e-01
   8.5333333e+00  -3.5500000e-01
   8.5361111e+00  -3.2303848e-01
   8.5388889e+00  -3.0803848e-01
   8.5416667e+00  -3.4000000e-01
   8.5444444e+00  -3.9196152e-01
   8.5472222e+00  -3.8696152e-01
   8.5500000e+00  -3.5000000e-01
   8.5527778e+00  -3.0303848e-01
   8.5555556e+00  -3.1303848e-01
   8.5583333e+00  -3.5500000e-01
   8.5611111e+00  -3.8696152e-01
   8.5638889e+00  -3.9196152e-01
   8.5666667e+00  -3.4000000e-01
   8.5694444e+00  -3.0803848e-01
   8.5722222e+00  -3.1303848e-01
   8.5750000e+00  -3.6000000e-01
   8.5777778e+00  -4.0696152e-01
   8.5805556e+00  -4.1196152e-01
   8.5833333e+00  -3.6000000e-01
   8.5861111e+00  -3.0803848e-01
   8.5888889e+00  -3.1803848e-01
   8.5916667e+00  -3.5000000e-01
   8.5944444e+00  -3.9196152e-01
   8.5972222e+00  -3.9696152e-01
   8.6000000e+00  -3.5500000e-01
   8.6027778e+00  -3.0303848e-01
   8.6055556e+00  -2.9303848e-01
   8.6083333e+00  -3.4000000e-01
   8.6111111e+00  -3.7696152e-01
   8.6138889e+00  -3.7696152e-01
   8.6166667e+00  -3.3000000e-01
   8.6194444e+00  -2.8803848e-01
   8.6222222e+00  -2.8303848e-01
   8.6250000e+00  -3.3000000e-01
   8.6277778e+00  -3.8196152e-01
   8.6305556e+00  -3.7696152e-01
   8.6333333e+00  -3.2500000e-01
   8.6361111e+00  -2.9303848e-01
   8.6388889e+00  -2.8803848e-01
   8.6416667e+00  -3.4000000e-01
   8.6444444e+00  -3.8196152e-01
   8.6472222e+00  -3.7696152e-01
   8.6500000e+00  -3.3000000e-01
   8.6527778e+00  -2.8803848e-01
   8.6555556e+00  -2.8303848e-01
   8.6583333e+00  -3.3000000e-01
   8.6611111e+00  -3.9196152e-01
   8.6638889e+00  -3.9696152e-01
   8.6666667e+00  -3.5000000e-01
   8.6694444e+00  -3.0803848e-01
   8.6722222e+00  -3.0803848e-01
   8.6750000e+00  -3.5500000e-01
   8.6777778e+00  -3.9696152e-01
   8.6805556e+00  -4.1196152e-01
   8.6833333e+00  -3.6500000e-01
   8.6861111e+00  -3.2303848e-01
   8.6888889e+00  -3.2303848e-01
   8.6916667e+00  -3.6000000e-01
   8.6944444e+00  -3.9696152e-01
   8.6972222e+00  -4.1196152e-01
   8.7000000e+00  -3.5500000e-01
   8.7027778e+00  -3.1303848e-01
   8.7055556e+00  -3.0303848e-01
   8.7083333e+00  -3.4500000e-01
   8.7111111e+00  -3.8696152e-01
   8.7138889e+00  -3.8196152e-01
   8.7166667e+00  -3.4500000e-01
   8.7194444e+00  -2.8303848e-01
   8.7222222e+00  -2.7803848e-01
   8.7250000e+00  -3.1500000e-01
   8.7277778e+00  -3.5696152e-01
   8.7305556e+00  -3.6196152e-01
   8.7333333e+00  -3.1000000e-01
   8.7361111e+00  -2.5803848e-01
   8.7388889e+00  -2.4303848e-01
   8.7416667e+00  -2.8000000e-01
   8.7444444e+00  -3.2196152e-01
   8.7472222e+00  -3.0696152e-01
   8.7500000e+00  -2.6000000e-01
   8.7527778e+00  -2.1303848e-01
   8.7555556e+00  -2.1303848e-01
   8.7583333e+00  -2.4500000e-01
   8.7611111e+00  -2.8196152e-01
   8.7638889e+00  -2.9196152e-01
   8.7666667e+00  -2.4500000e-01
   8.7694444e+00  -2.0803848e-01
   8.7722222e+00  -2.0303848e-01
   8.7750000e+00  -2.4500000e-01
   8.7777778e+00  -2.8696152e-01
   8.7805556e+00  -2.8196152e-01
   8.7833333e+00  -2.3500000e-01
   8.7861111e+00  -1.9303848e-01
   8.7888889e+00  -1.8803848e-01
   8.7916667e+00  -2.3000000e-01
   8.7944444e+00  -2.8196152e-01
   8.7972222e+00  -2.9196152e-01
   8.8000000e+00  -2.3500000e-01
   8.8027778e+00  -1.9803848e-01
   8.8055556e+00  -1.8803848e-01
   8.8083333e+00  -2.3500000e-01
   8.8111111e+00  -2.7696152e-01
   8.8138889e+00  -2.8696152e-01
   8.8166667e+00  -2.5000000e-01
   8.8194444e+00  -1.9303848e-01
   8.8222222e+00  -2.0803848e-01
   8.8250000e+00  -2.4500000e-01
   8.8277778e+00  -2.9696152e-01
   8.8305556e+00  -2.9696152e-01
   8.8333333e+00  -2.6500000e-01
   8.8361111e+00  -2.1803848e-01
   8.8388889e+00  -2.1803848e-01
   8.8416667e+00  -2.6000000e-01
   8.8444444e+00  -3.0196152e-01
   8.8472222e+00  -2.9696152e-01
   8.8500000e+00  -2.7500000e-01
   8.8527778e+00  -2.1803848e-01
   8.8555556e+00  -2.1803848e-01
   8.8583333e+00  -2.7000000e-01
   8.8611111e+00  -3.0196152e-01
   8.8638889e+00  -3.1696152e-01
   8.8666667e+00  -2.6500000e-01
   8.8694444e+00  -2.2803848e-01
   8.8722222e+00  -2.1303848e-01
   8.8750000e+00  -2.7500000e-01
   8.8777778e+00  -3.0696152e-01
   8.8805556e+00  -3.1696152e-01
   8.8833333e+00  -2.7000000e-01
   8.8861111e+00  -2.3303848e-01
   8.8888889e+00  -2.3303848e-01
